359748163,0,0
359752163,4095,0
359756163,4095,0
359760163,0,0
359764163,0,0
359768163,102,0
359772163,4095,0
359776163,4095,0
359780163,0,0
359784163,0,0
359788163,139,0
359792163,4095,0
359796163,4095,0
359800163,0,0
359804163,0,0
359808163,188,0
359812163,4095,0
359816163,4095,0
359820163,0,0
359824163,0,0
359828163,238,0
359832163,4095,0
359836163,4095,0
359840163,0,0
359844163,0,0
359848163,297,0
359852163,4095,0
359856163,4095,0
359860163,0,0
359864163,0,0
359868163,439,0
359872163,4095,0
359876163,4095,0
359880163,0,0
359884163,0,0
359888163,500,0
359892163,4095,0
359896163,4095,0
359900163,0,0
359904163,0,0
359908163,587,0
359912163,4095,0
359916163,4095,0
359920163,0,0
359924163,0,0
359928163,631,0
359932163,4095,0
359936163,4095,0
359940163,0,0
359944163,0,0
359948163,863,0
359952163,4095,0
359956163,4095,0
359960163,0,0
359964163,0,0
359968163,951,0
359972163,4095,0
359976163,4095,0
359980163,0,0
359984163,0,0
359988163,1001,0
359992163,4095,0
359996163,4095,0
360000163,0,0
360004163,0,0
360008163,1105,0
360012163,4095,0
360016163,4095,0
360020163,0,0
360024163,0,0
360028163,1202,0
360032163,4095,0
360036163,4095,0
360040163,0,0
360044163,0,0
360048163,1403,0
360052163,4095,0
360056163,4095,0
360060163,0,0
360064163,0,0
360068163,1515,0
360072163,4095,0
360076163,4095,0
360080163,0,0
360084163,0,0
360088163,1575,0
360092163,4095,0
360096163,4095,0
360100163,0,0
360104163,0,0
360108163,1595,0
360112163,4095,0
360116163,4095,0
360120163,0,0
360124163,0,0
360128163,1891,0
360132163,4095,0
360136163,4095,0
360140163,0,0
360144163,0,0
360148163,2004,0
360152163,4095,0
360156163,4095,0
360160163,0,0
360164163,0,0
360168163,2057,0
360172163,4095,0
360176163,4095,0
360180163,0,0
360184163,0,0
360188163,2131,0
360192163,4095,0
360196163,4095,0
360200163,0,0
360204163,0,0
360208163,2215,0
360212163,4095,0
360216163,4095,0
360220163,0,0
360224163,0,0
360228163,2503,0
360232163,4095,0
360236163,4095,0
360240163,0,0
360244163,0,0
360248163,2619,0
360252163,4095,0
360256163,4095,0
360260163,0,0
360264163,0,0
360268163,2731,0
360272163,4095,0
360276163,4095,0
360280163,0,0
360284163,0,0
360288163,2760,0
360292163,4095,0
360296163,4095,0
360300163,0,0
360304163,0,0
360308163,3101,0
360312163,4095,0
360316163,4095,0
360320163,0,0
360324163,0,0
360328163,3299,0
360332163,4095,0
360336163,4095,0
360340163,0,0
360344163,0,0
360348163,3363,0
360352163,4095,0
360356163,4095,0
360360163,0,0
360364163,0,0
360368163,3560,0
360372163,4095,0
360376163,4095,0
360380163,0,0
360384163,0,0
360388163,3767,0
360392163,4095,0
360396163,4095,0
360400163,0,0
360404163,0,0
360408163,4095,0
360412163,4095,0
360416163,4095,0
360420163,0,0
360424163,0,0
360428163,4095,0
360432163,4095,0
360436163,4095,0
360440163,0,0
360444163,0,0
360448163,4095,0
360452163,4095,0
360456163,4095,0
360460163,0,0
360464163,0,0
360468163,4095,0
360472163,4095,0
360476163,4095,0
360480163,0,0
360484163,0,0
360488163,4095,0
360492163,4095,0
360496163,4095,0
360500163,0,0
360504163,0,0
360508163,4095,0
360512163,4095,0
360516163,4012,0
360520163,0,0
360524163,0,0
360528163,4095,0
360532163,4095,0
360536163,3837,0
360540163,0,0
360544163,0,0
360548163,4095,0
360552163,4095,0
360556163,3613,0
360560163,0,0
360564163,0,0
360568163,4095,0
360572163,4095,0
360576163,3613,0
360580163,0,0
360584163,0,0
360588163,4095,0
360592163,4095,0
360596163,3515,0
360600163,0,0
360604163,0,0
360608163,4095,0
360612163,4095,0
360616163,3335,0
360620163,0,0
360624163,0,0
360628163,4095,0
360632163,4095,0
360636163,3199,0
360640163,0,0
360644163,0,0
360648163,4095,0
360652163,4095,0
360656163,3051,0
360660163,0,0
360664163,0,0
360668163,4095,0
360672163,4095,0
360676163,2995,0
360680163,0,0
360684163,0,0
360688163,4095,0
360692163,4095,0
360696163,2903,0
360700163,0,0
360704163,0,0
360708163,4095,0
360712163,4095,0
360716163,2761,0
360720163,0,0
360724163,0,0
360728163,4095,0
360732163,4095,0
360736163,2587,0
360740163,0,0
360744163,0,0
360748163,4095,0
360752163,4095,0
360756163,2591,0
360760163,0,0
360764163,0,0
360768163,4095,0
360772163,4095,0
360776163,2519,0
360780163,0,0
360784163,0,0
360788163,4095,0
360792163,4095,0
360796163,2345,0
360800163,0,0
360804163,0,0
360808163,4095,0
360812163,4095,0
360816163,2218,0
360820163,0,0
360824163,0,0
360828163,4095,0
360832163,4095,0
360836163,2043,0
360840163,0,0
360844163,0,0
360848163,4095,0
360852163,4095,0
360856163,2023,0
360860163,0,0
360864163,0,0
360868163,4095,0
360872163,4095,0
360876163,1911,0
360880163,0,0
360884163,0,0
360888163,4095,0
360892163,4095,0
360896163,1774,0
360900163,0,0
360904163,0,0
360908163,4095,0
360912163,4095,0
360916163,1527,0
360920163,0,0
360924163,0,0
360928163,4095,0
360932163,4095,0
360936163,1515,0
360940163,0,0
360944163,0,0
360948163,4095,0
360952163,4095,0
360956163,1455,0
360960163,0,0
360964163,0,0
360968163,4095,0
360972163,4095,0
360976163,1255,0
360980163,0,0
360984163,0,0
360988163,4095,0
360992163,4095,0
360996163,1101,0
361000163,0,0
361004163,0,0
361008163,4095,0
361012163,4095,0
361016163,891,0
361020163,0,0
361024163,0,0
361028163,4095,0
361032163,4095,0
361036163,860,0
361040163,0,0
361044163,0,0
361048163,4095,0
361052163,4095,0
361056163,729,0
361060163,0,0
361064163,0,0
361068163,4095,0
361072163,4095,0
361076163,580,0
361080163,0,0
361084163,0,0
361088163,4095,0
361092163,4095,0
361096163,329,0
361100163,0,0
361104163,0,0
361108163,4095,0
361112163,4095,0
361116163,371,0
361120163,0,0
361124163,0,0
361128163,4095,0
361132163,4095,0
361136163,296,0
361140163,0,0
361144163,0,0
361148163,4095,0
361152163,4095,0
361156163,37,0
361160163,0,0
361164163,0,0
361168163,4095,0
361172163,4095,0
361176163,0,0
361180163,0,0
361184163,0,0
361188163,4095,0
361192163,4095,0
361196163,0,0
361200163,0,0
361204163,165,0
361208163,4095,0
361212163,4095,0
361216163,0,0
361220163,0,0
361224163,274,0
361228163,4095,0
361232163,4095,0
361236163,0,0
361240163,0,0
361244163,309,0
361248163,4095,0
361252163,4095,0
361256163,0,0
361260163,0,0
361264163,363,0
361268163,4095,0
361272163,4095,0
361276163,0,0
361280163,0,0
361284163,425,0
361288163,4095,0
361292163,4095,0
361296163,0,0
361300163,0,0
361304163,552,0
361308163,4095,0
361312163,4095,0
361316163,0,0
361320163,0,0
361324163,632,0
361328163,4095,0
361332163,4095,0
361336163,0,0
361340163,0,0
361344163,665,0
361348163,4095,0
361352163,4095,0
361356163,0,0
361360163,0,0
361364163,669,0
361368163,4095,0
361372163,4095,0
361376163,0,0
361380163,0,0
361384163,840,0
361388163,4095,0
361392163,4095,0
361396163,0,0
361400163,0,0
361404163,986,0
361408163,4095,0
361412163,4095,0
361416163,0,0
361420163,0,0
361424163,1077,0
361428163,4095,0
361432163,4095,0
361436163,0,0
361440163,0,0
361444163,1200,0
361448163,4095,0
361452163,4095,0
361456163,0,0
361460163,0,0
361464163,1278,0
361468163,4095,0
361472163,4095,0
361476163,0,0
361480163,0,0
361484163,1463,0
361488163,4095,0
361492163,4095,0
361496163,0,0
361500163,0,0
361504163,1589,0
361508163,4095,0
361512163,4095,0
361516163,0,0
361520163,0,0
361524163,1687,0
361528163,4095,0
361532163,4095,0
361536163,0,0
361540163,0,0
361544163,1684,0
361548163,4095,0
361552163,4095,0
361556163,0,0
361560163,0,0
361564163,1909,0
361568163,4095,0
361572163,4095,0
361576163,0,0
361580163,0,0
361584163,2157,0
361588163,4095,0
361592163,4095,0
361596163,0,0
361600163,0,0
361604163,2190,0
361608163,4095,0
361612163,4095,0
361616163,0,0
361620163,0,0
361624163,2323,0
361628163,4095,0
361632163,4095,0
361636163,0,0
361640163,0,0
361644163,2351,0
361648163,4095,0
361652163,4095,0
361656163,0,0
361660163,0,0
361664163,2647,0
361668163,4095,0
361672163,4095,0
361676163,0,0
361680163,0,0
361684163,2941,0
361688163,4095,0
361692163,4095,0
361696163,0,0
361700163,0,0
361704163,2843,0
361708163,4095,0
361712163,4095,0
361716163,0,0
361720163,0,0
361724163,2639,0
361728163,4095,0
361732163,4095,0
361736163,0,0
361740163,0,0
361744163,3097,0
361748163,4095,0
361752163,4095,0
361756163,0,0
361760163,0,0
361764163,4095,0
361768163,4095,0
361772163,4095,0
361776163,0,0
361780163,0,0
361784163,4095,0
361788163,4095,0
361792163,4095,0
361796163,0,0
361800163,0,0
361804163,3451,0
361808163,4095,0
361812163,2747,0
361816163,0,0
361820163,0,0
361824163,2403,0
361828163,4095,0
361832163,4095,0
361836163,0,0
361840163,0,0
361844163,4095,0
361848163,4095,0
361852163,4095,0
361856163,0,0
361860163,0,0
361864163,4095,0
361868163,4095,0
361872163,4095,0
361876163,0,0
361880163,0,0
361884163,4095,0
361888163,4095,0
361892163,4095,0
361896163,0,0
361900163,0,0
361904163,3025,0
361908163,4095,0
361912163,3813,0
361916163,0,0
361920163,0,0
361924163,4095,0
361928163,4095,0
361932163,4095,0
361936163,0,0
361940163,0,0
361944163,4095,0
361948163,4095,0
361952163,4095,0
361956163,0,0
361960163,0,0
361964163,4095,0
361968163,4095,0
361972163,4095,0
361976163,0,0
361980163,0,0
361984163,4095,0
361988163,4095,0
361992163,3145,0
361996163,0,0
362000163,0,0
362004163,3579,0
362008163,4095,0
362012163,3338,0
362016163,0,0
362020163,0,0
362024163,4095,0
362028163,4095,0
362032163,4095,0
362036163,0,0
362040163,0,0
362044163,4095,0
362048163,4095,0
362052163,4024,0
362056163,0,0
362060163,0,0
362064163,4095,0
362068163,4095,0
362072163,3448,0
362076163,0,0
362080163,0,0
362084163,4095,0
362088163,4095,0
362092163,3021,0
362096163,0,0
362100163,0,0
362104163,4095,0
362108163,4095,0
362112163,3559,0
362116163,0,0
362120163,0,0
362124163,4095,0
362128163,4095,0
362132163,4071,0
362136163,0,0
362140163,0,0
362144163,4095,0
362148163,4095,0
362152163,3227,0
362156163,0,0
362160163,0,0
362164163,4095,0
362168163,4095,0
362172163,2714,0
362176163,0,0
362180163,0,0
362184163,4095,0
362188163,4095,0
362192163,2514,0
362196163,0,0
362200163,0,0
362204163,4095,0
362208163,4095,0
362212163,3341,0
362216163,0,0
362220163,0,0
362224163,4095,0
362228163,4095,0
362232163,2933,0
362236163,0,0
362240163,0,0
362244163,4095,0
362248163,4095,0
362252163,2525,0
362256163,0,0
362260163,0,0
362264163,4095,0
362268163,4095,0
362272163,2067,0
362276163,0,0
362280163,0,0
362284163,4095,0
362288163,4095,0
362292163,2520,0
362296163,0,0
362300163,0,0
362304163,4095,0
362308163,4095,0
362312163,3054,0
362316163,0,0
362320163,0,0
362324163,4095,0
362328163,4095,0
362332163,2251,0
362336163,0,0
362340163,0,0
362344163,4095,0
362348163,4095,0
362352163,1716,0
362356163,0,0
362360163,0,0
362364163,4095,0
362368163,4095,0
362372163,1369,0
362376163,0,0
362380163,0,0
362384163,4095,0
362388163,4095,0
362392163,2378,0
362396163,0,0
362400163,0,0
362404163,4095,0
362408163,4095,0
362412163,2002,0
362416163,0,0
362420163,0,0
362424163,4095,0
362428163,4095,0
362432163,1507,0
362436163,0,0
362440163,0,0
362444163,4095,0
362448163,4095,0
362452163,879,0
362456163,0,0
362460163,0,0
362464163,4095,0
362468163,4095,0
362472163,1383,0
362476163,0,0
362480163,0,0
362484163,4095,0
362488163,4095,0
362492163,2092,0
362496163,0,0
362500163,0,0
362504163,4095,0
362508163,4095,0
362512163,1195,0
362516163,0,0
362520163,0,0
362524163,4095,0
362528163,4095,0
362532163,873,0
362536163,0,0
362540163,0,0
362544163,4095,0
362548163,4095,0
362552163,478,0
362556163,0,0
362560163,0,0
362564163,4095,0
362568163,4095,0
362572163,597,0
362576163,0,0
362580163,0,0
362584163,4095,0
362588163,4095,0
362592163,359,0
362596163,0,0
362600163,0,0
362604163,4095,0
362608163,4095,0
362612163,91,0
362616163,0,0
362620163,0,0
362624163,4095,0
362628163,4095,0
362632163,0,0
362636163,0,0
362640163,0,0
362644163,4095,0
362648163,4095,0
362652163,0,0
362656163,0,0
362660163,0,0
362664163,4095,0
362668163,4095,0
362672163,0,0
362676163,0,0
362680163,0,0
362684163,4095,0
362688163,4095,0
362692163,0,0
362696163,0,0
362700163,91,0
362704163,4095,0
362708163,4095,0
362712163,0,0
362716163,0,0
362720163,85,0
362724163,4095,0
362728163,4095,0
362732163,0,0
362736163,0,0
362740163,197,0
362744163,4095,0
362748163,4095,0
362752163,0,0
362756163,0,0
362760163,357,0
362764163,4095,0
362768163,4095,0
362772163,0,0
362776163,0,0
362780163,405,0
362784163,4095,0
362788163,4095,0
362792163,0,0
362796163,0,0
362800163,438,0
362804163,4095,0
362808163,4095,0
362812163,0,0
362816163,0,0
362820163,477,0
362824163,4095,0
362828163,4095,0
362832163,0,0
362836163,0,0
362840163,697,0
362844163,4095,0
362848163,4095,0
362852163,0,0
362856163,0,0
362860163,766,0
362864163,4095,0
362868163,4095,0
362872163,0,0
362876163,0,0
362880163,831,0
362884163,4095,0
362888163,4095,0
362892163,0,0
362896163,0,0
362900163,858,0
362904163,4095,0
362908163,4095,0
362912163,0,0
362916163,0,0
362920163,967,0
362924163,4095,0
362928163,4095,0
362932163,0,0
362936163,0,0
362940163,1143,0
362944163,4095,0
362948163,4095,0
362952163,0,0
362956163,0,0
362960163,1253,0
362964163,4095,0
362968163,4095,0
362972163,0,0
362976163,0,0
362980163,1362,0
362984163,4095,0
362988163,4095,0
362992163,0,0
362996163,0,0
363000163,1507,0
363004163,4095,0
363008163,4095,0
363012163,0,0
363016163,0,0
363020163,1769,0
363024163,4095,0
363028163,4095,0
363032163,0,0
363036163,0,0
363040163,1716,0
363044163,4095,0
363048163,4095,0
363052163,0,0
363056163,0,0
363060163,1629,0
363064163,4095,0
363068163,4095,0
363072163,0,0
363076163,0,0
363080163,1656,0
363084163,4095,0
363088163,4095,0
363092163,0,0
363096163,0,0
363100163,1831,0
363104163,4095,0
363108163,4095,0
363112163,0,0
363116163,0,0
363120163,2086,0
363124163,4095,0
363128163,4095,0
363132163,0,0
363136163,0,0
363140163,2157,0
363144163,4095,0
363148163,4095,0
363152163,0,0
363156163,0,0
363160163,2301,0
363164163,4095,0
363168163,4095,0
363172163,0,0
363176163,0,0
363180163,2397,0
363184163,4095,0
363188163,4095,0
363192163,0,0
363196163,0,0
363200163,2791,0
363204163,4095,0
363208163,4095,0
363212163,0,0
363216163,0,0
363220163,2915,0
363224163,4095,0
363228163,4095,0
363232163,0,0
363236163,0,0
363240163,2975,0
363244163,4095,0
363248163,4095,0
363252163,0,0
363256163,0,0
363260163,3019,0
363264163,4095,0
363268163,4095,0
363272163,0,0
363276163,0,0
363280163,3197,0
363284163,4095,0
363288163,4095,0
363292163,0,0
363296163,0,0
363300163,3558,0
363304163,4095,0
363308163,4095,0
363312163,0,0
363316163,0,0
363320163,3703,0
363324163,4095,0
363328163,4095,0
363332163,0,0
363336163,0,0
363340163,3798,0
363344163,4095,0
363348163,4095,0
363352163,0,0
363356163,0,0
363360163,3796,0
363364163,4095,0
363368163,4095,0
363372163,0,0
363376163,0,0
363380163,4095,0
363384163,4095,0
363388163,4095,0
363392163,0,0
363396163,0,0
363400163,4095,0
363404163,4095,0
363408163,4095,0
363412163,0,0
363416163,0,0
363420163,4095,0
363424163,4095,0
363428163,3962,0
363432163,0,0
363436163,0,0
363440163,4095,0
363444163,4095,0
363448163,3849,0
363452163,0,0
363456163,0,0
363460163,4095,0
363464163,4095,0
363468163,3973,0
363472163,0,0
363476163,0,0
363480163,4095,0
363484163,4095,0
363488163,3848,0
363492163,0,0
363496163,0,0
363500163,4095,0
363504163,4095,0
363508163,3704,0
363512163,0,0
363516163,0,0
363520163,4095,0
363524163,4095,0
363528163,3599,0
363532163,0,0
363536163,0,0
363540163,4095,0
363544163,4095,0
363548163,3401,0
363552163,0,0
363556163,0,0
363560163,4095,0
363564163,4095,0
363568163,3303,0
363572163,0,0
363576163,0,0
363580163,4095,0
363584163,4095,0
363588163,3165,0
363592163,0,0
363596163,0,0
363600163,4095,0
363604163,4095,0
363608163,3025,0
363612163,0,0
363616163,0,0
363620163,4095,0
363624163,4095,0
363628163,2909,0
363632163,0,0
363636163,0,0
363640163,4095,0
363644163,4095,0
363648163,2959,0
363652163,0,0
363656163,0,0
363660163,4095,0
363664163,4095,0
363668163,2909,0
363672163,0,0
363676163,0,0
363680163,4095,0
363684163,4095,0
363688163,2763,0
363692163,0,0
363696163,0,0
363700163,4095,0
363704163,4095,0
363708163,2592,0
363712163,0,0
363716163,0,0
363720163,4095,0
363724163,4095,0
363728163,2390,0
363732163,0,0
363736163,0,0
363740163,4095,0
363744163,4095,0
363748163,2361,0
363752163,0,0
363756163,0,0
363760163,4095,0
363764163,4095,0
363768163,2253,0
363772163,0,0
363776163,0,0
363780163,4095,0
363784163,4095,0
363788163,2093,0
363792163,0,0
363796163,0,0
363800163,4095,0
363804163,4095,0
363808163,1930,0
363812163,0,0
363816163,0,0
363820163,4095,0
363824163,4095,0
363828163,1993,0
363832163,0,0
363836163,0,0
363840163,4095,0
363844163,4095,0
363848163,1935,0
363852163,0,0
363856163,0,0
363860163,4095,0
363864163,4095,0
363868163,1727,0
363872163,0,0
363876163,0,0
363880163,4095,0
363884163,4095,0
363888163,1555,0
363892163,0,0
363896163,0,0
363900163,4095,0
363904163,4095,0
363908163,1379,0
363912163,0,0
363916163,0,0
363920163,4095,0
363924163,4095,0
363928163,1357,0
363932163,0,0
363936163,0,0
363940163,4095,0
363944163,4095,0
363948163,1304,0
363952163,0,0
363956163,0,0
363960163,4095,0
363964163,4095,0
363968163,1125,0
363972163,0,0
363976163,0,0
363980163,4095,0
363984163,4095,0
363988163,888,0
363992163,0,0
363996163,0,0
364000163,4095,0
364004163,4095,0
364008163,920,0
364012163,0,0
364016163,0,0
364020163,4095,0
364024163,4095,0
364028163,827,0
364032163,0,0
364036163,0,0
364040163,4095,0
364044163,4095,0
364048163,659,0
364052163,0,0
364056163,0,0
364060163,4095,0
364064163,4095,0
364068163,495,0
364072163,0,0
364076163,0,0
364080163,4095,0
364084163,4095,0
364088163,367,0
364092163,0,0
364096163,0,0
364100163,4095,0
364104163,4095,0
364108163,303,0
364112163,0,0
364116163,0,0
364120163,4095,0
364124163,4095,0
364128163,199,0
364132163,0,0
364136163,0,0
364140163,4095,0
364144163,4095,0
364148163,0,0
364152163,0,0
364156163,0,0
364160163,4095,0
364164163,4095,0
364168163,0,0
364172163,0,0
364176163,0,0
364180163,4095,0
364184163,4095,0
364188163,0,0
364192163,0,0
364196163,0,0
364200163,4095,0
364204163,4095,0
364208163,0,0
364212163,0,0
364216163,131,0
364220163,4095,0
364224163,4095,0
364228163,0,0
364232163,0,0
364236163,175,0
364240163,4095,0
364244163,4095,0
364248163,0,0
364252163,0,0
364256163,191,0
364260163,4095,0
364264163,4095,0
364268163,0,0
364272163,0,0
364276163,285,0
364280163,4095,0
364284163,4095,0
364288163,0,0
364292163,0,0
364296163,447,0
364300163,4095,0
364304163,4095,0
364308163,0,0
364312163,0,0
364316163,455,0
364320163,4095,0
364324163,4095,0
364328163,0,0
364332163,0,0
364336163,529,0
364340163,4095,0
364344163,4095,0
364348163,0,0
364352163,0,0
364356163,553,0
364360163,4095,0
364364163,4095,0
364368163,0,0
364372163,0,0
364376163,703,0
364380163,4095,0
364384163,4095,0
364388163,0,0
364392163,0,0
364396163,799,0
364400163,4095,0
364404163,4095,0
364408163,0,0
364412163,0,0
364416163,861,0
364420163,4095,0
364424163,4095,0
364428163,0,0
364432163,0,0
364436163,871,0
364440163,4095,0
364444163,4095,0
364448163,0,0
364452163,0,0
364456163,1041,0
364460163,4095,0
364464163,4095,0
364468163,0,0
364472163,0,0
364476163,1253,0
364480163,4095,0
364484163,4095,0
364488163,0,0
364492163,0,0
364496163,1303,0
364500163,4095,0
364504163,4095,0
364508163,0,0
364512163,0,0
364516163,1401,0
364520163,4095,0
364524163,4095,0
364528163,0,0
364532163,0,0
364536163,1414,0
364540163,4095,0
364544163,4095,0
364548163,0,0
364552163,0,0
364556163,1621,0
364560163,4095,0
364564163,4095,0
364568163,0,0
364572163,0,0
364576163,1745,0
364580163,4095,0
364584163,4095,0
364588163,0,0
364592163,0,0
364596163,1821,0
364600163,4095,0
364604163,4095,0
364608163,0,0
364612163,0,0
364616163,1843,0
364620163,4095,0
364624163,4095,0
364628163,0,0
364632163,0,0
364636163,1979,0
364640163,4095,0
364644163,4095,0
364648163,0,0
364652163,0,0
364656163,2267,0
364660163,4095,0
364664163,4095,0
364668163,0,0
364672163,0,0
364676163,2344,0
364680163,4095,0
364684163,4095,0
364688163,0,0
364692163,0,0
364696163,2397,0
364700163,4095,0
364704163,4095,0
364708163,0,0
364712163,0,0
364716163,2486,0
364720163,4095,0
364724163,4095,0
364728163,0,0
364732163,0,0
364736163,2671,0
364740163,4095,0
364744163,4095,0
364748163,0,0
364752163,0,0
364756163,2877,0
364760163,4095,0
364764163,4095,0
364768163,0,0
364772163,0,0
364776163,2953,0
364780163,4095,0
364784163,4095,0
364788163,0,0
364792163,0,0
364796163,2943,0
364800163,4095,0
364804163,4095,0
364808163,0,0
364812163,0,0
364816163,3222,0
364820163,4095,0
364824163,4095,0
364828163,0,0
364832163,0,0
364836163,3624,0
364840163,4095,0
364844163,4095,0
364848163,0,0
364852163,0,0
364856163,3741,0
364860163,4095,0
364864163,4095,0
364868163,0,0
364872163,0,0
364876163,3877,0
364880163,4095,0
364884163,4095,0
364888163,0,0
364892163,0,0
364896163,3941,0
364900163,4095,0
364904163,4095,0
364908163,0,0
364912163,0,0
364916163,4095,0
364920163,4095,0
364924163,4095,0
364928163,0,0
364932163,0,0
364936163,4095,0
364940163,4095,0
364944163,4095,0
364948163,0,0
364952163,0,0
364956163,4095,0
364960163,4095,0
364964163,4095,0
364968163,0,0
364972163,0,0
364976163,4095,0
364980163,4095,0
364984163,4063,0
364988163,0,0
364992163,0,0
364996163,4095,0
365000163,4095,0
365004163,4009,0
365008163,0,0
365012163,0,0
365016163,4095,0
365020163,4095,0
365024163,3942,0
365028163,0,0
365032163,0,0
365036163,4095,0
365040163,4095,0
365044163,3701,0
365048163,0,0
365052163,0,0
365056163,4095,0
365060163,4095,0
365064163,3527,0
365068163,0,0
365072163,0,0
365076163,4095,0
365080163,4095,0
365084163,3448,0
365088163,0,0
365092163,0,0
365096163,4095,0
365100163,4095,0
365104163,3469,0
365108163,0,0
365112163,0,0
365116163,4095,0
365120163,4095,0
365124163,3307,0
365128163,0,0
365132163,0,0
365136163,4095,0
365140163,4095,0
365144163,3237,0
365148163,0,0
365152163,0,0
365156163,4095,0
365160163,4095,0
365164163,3093,0
365168163,0,0
365172163,0,0
365176163,4095,0
365180163,4095,0
365184163,2984,0
365188163,0,0
365192163,0,0
365196163,4095,0
365200163,4095,0
365204163,2927,0
365208163,0,0
365212163,0,0
365216163,4095,0
365220163,4095,0
365224163,2777,0
365228163,0,0
365232163,0,0
365236163,4095,0
365240163,4095,0
365244163,2610,0
365248163,0,0
365252163,0,0
365256163,4095,0
365260163,4095,0
365264163,2537,0
365268163,0,0
365272163,0,0
365276163,4095,0
365280163,4095,0
365284163,2623,0
365288163,0,0
365292163,0,0
365296163,4095,0
365300163,4095,0
365304163,2459,0
365308163,0,0
365312163,0,0
365316163,4095,0
365320163,4095,0
365324163,2297,0
365328163,0,0
365332163,0,0
365336163,4095,0
365340163,4095,0
365344163,2151,0
365348163,0,0
365352163,0,0
365356163,4095,0
365360163,4095,0
365364163,2037,0
365368163,0,0
365372163,0,0
365376163,4095,0
365380163,4095,0
365384163,2003,0
365388163,0,0
365392163,0,0
365396163,4095,0
365400163,4095,0
365404163,1836,0
365408163,0,0
365412163,0,0
365416163,4095,0
365420163,4095,0
365424163,1622,0
365428163,0,0
365432163,0,0
365436163,4095,0
365440163,4095,0
365444163,1481,0
365448163,0,0
365452163,0,0
365456163,4095,0
365460163,4095,0
365464163,1555,0
365468163,0,0
365472163,0,0
365476163,4095,0
365480163,4095,0
365484163,1437,0
365488163,0,0
365492163,0,0
365496163,4095,0
365500163,4095,0
365504163,1213,0
365508163,0,0
365512163,0,0
365516163,4095,0
365520163,4095,0
365524163,1039,0
365528163,0,0
365532163,0,0
365536163,4095,0
365540163,4095,0
365544163,909,0
365548163,0,0
365552163,0,0
365556163,4095,0
365560163,4095,0
365564163,907,0
365568163,0,0
365572163,0,0
365576163,4095,0
365580163,4095,0
365584163,807,0
365588163,0,0
365592163,0,0
365596163,4095,0
365600163,4095,0
365604163,536,0
365608163,0,0
365612163,0,0
365616163,4095,0
365620163,4095,0
365624163,373,0
365628163,0,0
365632163,0,0
365636163,4095,0
365640163,4095,0
365644163,453,0
365648163,0,0
365652163,0,0
365656163,4095,0
365660163,4095,0
365664163,331,0
365668163,0,0
365672163,0,0
365676163,4095,0
365680163,4095,0
365684163,19,0
365688163,0,0
365692163,0,0
365696163,4095,0
365700163,4095,0
365704163,0,0
365708163,0,0
365712163,0,0
365716163,4095,0
365720163,4095,0
365724163,0,0
365728163,0,0
365732163,164,0
365736163,4095,0
365740163,4095,0
365744163,0,0
365748163,0,0
365752163,248,0
365756163,4095,0
365760163,4095,0
365764163,0,0
365768163,0,0
365772163,281,0
365776163,4095,0
365780163,4095,0
365784163,0,0
365788163,0,0
365792163,307,0
365796163,4095,0
365800163,4095,0
365804163,0,0
365808163,0,0
365812163,363,0
365816163,4095,0
365820163,4095,0
365824163,0,0
365828163,0,0
365832163,522,0
365836163,4095,0
365840163,4095,0
365844163,0,0
365848163,0,0
365852163,565,0
365856163,4095,0
365860163,4095,0
365864163,0,0
365868163,0,0
365872163,607,0
365876163,4095,0
365880163,4095,0
365884163,0,0
365888163,0,0
365892163,623,0
365896163,4095,0
365900163,4095,0
365904163,0,0
365908163,0,0
365912163,796,0
365916163,4095,0
365920163,4095,0
365924163,0,0
365928163,0,0
365932163,943,0
365936163,4095,0
365940163,4095,0
365944163,0,0
365948163,0,0
365952163,995,0
365956163,4095,0
365960163,4095,0
365964163,0,0
365968163,0,0
365972163,1069,0
365976163,4095,0
365980163,4095,0
365984163,0,0
365988163,0,0
365992163,1109,0
365996163,4095,0
366000163,4095,0
366004163,0,0
366008163,0,0
366012163,1291,0
366016163,4095,0
366020163,4095,0
366024163,0,0
366028163,0,0
366032163,1430,0
366036163,4095,0
366040163,4095,0
366044163,0,0
366048163,0,0
366052163,1491,0
366056163,4095,0
366060163,4095,0
366064163,0,0
366068163,0,0
366072163,1541,0
366076163,4095,0
366080163,4095,0
366084163,0,0
366088163,0,0
366092163,1715,0
366096163,4095,0
366100163,4095,0
366104163,0,0
366108163,0,0
366112163,1903,0
366116163,4095,0
366120163,4095,0
366124163,0,0
366128163,0,0
366132163,1949,0
366136163,4095,0
366140163,4095,0
366144163,0,0
366148163,0,0
366152163,2028,0
366156163,4095,0
366160163,4095,0
366164163,0,0
366168163,0,0
366172163,2105,0
366176163,4095,0
366180163,4095,0
366184163,0,0
366188163,0,0
366192163,2317,0
366196163,4095,0
366200163,4095,0
366204163,0,0
366208163,0,0
366212163,2475,0
366216163,4095,0
366220163,4095,0
366224163,0,0
366228163,0,0
366232163,2579,0
366236163,4095,0
366240163,4095,0
366244163,0,0
366248163,0,0
366252163,2579,0
366256163,4095,0
366260163,4095,0
366264163,0,0
366268163,0,0
366272163,2823,0
366276163,4095,0
366280163,4095,0
366284163,0,0
366288163,0,0
366292163,3097,0
366296163,4095,0
366300163,4095,0
366304163,0,0
366308163,0,0
366312163,3134,0
366316163,4095,0
366320163,4095,0
366324163,0,0
366328163,0,0
366332163,3319,0
366336163,4095,0
366340163,4095,0
366344163,0,0
366348163,0,0
366352163,3385,0
366356163,4095,0
366360163,4095,0
366364163,0,0
366368163,0,0
366372163,3653,0
366376163,4095,0
366380163,4095,0
366384163,0,0
366388163,0,0
366392163,4007,0
366396163,4095,0
366400163,4095,0
366404163,0,0
366408163,0,0
366412163,4095,0
366416163,4095,0
366420163,4095,0
366424163,0,0
366428163,0,0
366432163,4095,0
366436163,4095,0
366440163,4095,0
366444163,0,0
366448163,0,0
366452163,4095,0
366456163,4095,0
366460163,4095,0
366464163,0,0
366468163,0,0
366472163,4095,0
366476163,4095,0
366480163,4095,0
366484163,0,0
366488163,0,0
366492163,4095,0
366496163,4095,0
366500163,4095,0
366504163,0,0
366508163,0,0
366512163,4095,0
366516163,4095,0
366520163,3869,0
366524163,0,0
366528163,0,0
366532163,4095,0
366536163,4095,0
366540163,3773,0
366544163,0,0
366548163,0,0
366552163,4095,0
366556163,4095,0
366560163,3829,0
366564163,0,0
366568163,0,0
366572163,4095,0
366576163,4095,0
366580163,3623,0
366584163,0,0
366588163,0,0
366592163,4095,0
366596163,4095,0
366600163,3448,0
366604163,0,0
366608163,0,0
366612163,4095,0
366616163,4095,0
366620163,3275,0
366624163,0,0
366628163,0,0
366632163,4095,0
366636163,4095,0
366640163,3231,0
366644163,0,0
366648163,0,0
366652163,4095,0
366656163,4095,0
366660163,3149,0
366664163,0,0
366668163,0,0
366672163,4095,0
366676163,4095,0
366680163,2983,0
366684163,0,0
366688163,0,0
366692163,4095,0
366696163,4095,0
366700163,2781,0
366704163,0,0
366708163,0,0
366712163,4095,0
366716163,4095,0
366720163,2740,0
366724163,0,0
366728163,0,0
366732163,4095,0
366736163,4095,0
366740163,2789,0
366744163,0,0
366748163,0,0
366752163,4095,0
366756163,4095,0
366760163,2600,0
366764163,0,0
366768163,0,0
366772163,4095,0
366776163,4095,0
366780163,2459,0
366784163,0,0
366788163,0,0
366792163,4095,0
366796163,4095,0
366800163,2303,0
366804163,0,0
366808163,0,0
366812163,4095,0
366816163,4095,0
366820163,2251,0
366824163,0,0
366828163,0,0
366832163,4095,0
366836163,4095,0
366840163,2156,0
366844163,0,0
366848163,0,0
366852163,4095,0
366856163,4095,0
366860163,1983,0
366864163,0,0
366868163,0,0
366872163,4095,0
366876163,4095,0
366880163,1721,0
366884163,0,0
366888163,0,0
366892163,4095,0
366896163,4095,0
366900163,1636,0
366904163,0,0
366908163,0,0
366912163,4095,0
366916163,4095,0
366920163,1671,0
366924163,0,0
366928163,0,0
366932163,4095,0
366936163,4095,0
366940163,1541,0
366944163,0,0
366948163,0,0
366952163,4095,0
366956163,4095,0
366960163,1407,0
366964163,0,0
366968163,0,0
366972163,4095,0
366976163,4095,0
366980163,1285,0
366984163,0,0
366988163,0,0
366992163,4095,0
366996163,4095,0
367000163,1177,0
367004163,0,0
367008163,0,0
367012163,4095,0
367016163,4095,0
367020163,1117,0
367024163,0,0
367028163,0,0
367032163,4095,0
367036163,4095,0
367040163,875,0
367044163,0,0
367048163,0,0
367052163,4095,0
367056163,4095,0
367060163,659,0
367064163,0,0
367068163,0,0
367072163,4095,0
367076163,4095,0
367080163,551,0
367084163,0,0
367088163,0,0
367092163,4095,0
367096163,4095,0
367100163,597,0
367104163,0,0
367108163,0,0
367112163,4095,0
367116163,4095,0
367120163,413,0
367124163,0,0
367128163,0,0
367132163,4095,0
367136163,4095,0
367140163,201,0
367144163,0,0
367148163,0,0
367152163,4095,0
367156163,4095,0
367160163,0,0
367164163,0,0
367168163,0,0
367172163,4095,0
367176163,4095,0
367180163,0,0
367184163,0,0
367188163,29,0
367192163,4095,0
367196163,4095,0
367200163,0,0
367204163,0,0
367208163,57,0
367212163,4095,0
367216163,4095,0
367220163,0,0
367224163,0,0
367228163,111,0
367232163,4095,0
367236163,4095,0
367240163,0,0
367244163,0,0
367248163,151,0
367252163,4095,0
367256163,4095,0
367260163,0,0
367264163,0,0
367268163,253,0
367272163,4095,0
367276163,4095,0
367280163,0,0
367284163,0,0
367288163,376,0
367292163,4095,0
367296163,4095,0
367300163,0,0
367304163,0,0
367308163,445,0
367312163,4095,0
367316163,4095,0
367320163,0,0
367324163,0,0
367328163,471,0
367332163,4095,0
367336163,4095,0
367340163,0,0
367344163,0,0
367348163,563,0
367352163,4095,0
367356163,4095,0
367360163,0,0
367364163,0,0
367368163,731,0
367372163,4095,0
367376163,4095,0
367380163,0,0
367384163,0,0
367388163,841,0
367392163,4095,0
367396163,4095,0
367400163,0,0
367404163,0,0
367408163,921,0
367412163,4095,0
367416163,4095,0
367420163,0,0
367424163,0,0
367428163,937,0
367432163,4095,0
367436163,4095,0
367440163,0,0
367444163,0,0
367448163,1031,0
367452163,4095,0
367456163,4095,0
367460163,0,0
367464163,0,0
367468163,1163,0
367472163,4095,0
367476163,4095,0
367480163,0,0
367484163,0,0
367488163,1242,0
367492163,4095,0
367496163,4095,0
367500163,0,0
367504163,0,0
367508163,1253,0
367512163,4095,0
367516163,4095,0
367520163,0,0
367524163,0,0
367528163,1364,0
367532163,4095,0
367536163,4095,0
367540163,0,0
367544163,0,0
367548163,1612,0
367552163,4095,0
367556163,4095,0
367560163,0,0
367564163,0,0
367568163,1779,0
367572163,4095,0
367576163,4095,0
367580163,0,0
367584163,0,0
367588163,1848,0
367592163,4095,0
367596163,4095,0
367600163,0,0
367604163,0,0
367608163,1884,0
367612163,4095,0
367616163,4095,0
367620163,0,0
367624163,0,0
367628163,1966,0
367632163,4095,0
367636163,4095,0
367640163,0,0
367644163,0,0
367648163,2239,0
367652163,4095,0
367656163,4095,0
367660163,0,0
367664163,0,0
367668163,2348,0
367672163,4095,0
367676163,4095,0
367680163,0,0
367684163,0,0
367688163,2431,0
367692163,4095,0
367696163,4095,0
367700163,0,0
367704163,0,0
367708163,2536,0
367712163,4095,0
367716163,4095,0
367720163,0,0
367724163,0,0
367728163,2879,0
367732163,4095,0
367736163,4095,0
367740163,0,0
367744163,0,0
367748163,3051,0
367752163,4095,0
367756163,4095,0
367760163,0,0
367764163,0,0
367768163,3115,0
367772163,4095,0
367776163,4095,0
367780163,0,0
367784163,0,0
367788163,3191,0
367792163,4095,0
367796163,4095,0
367800163,0,0
367804163,0,0
367808163,3383,0
367812163,4095,0
367816163,4095,0
367820163,0,0
367824163,0,0
367828163,3743,0
367832163,4095,0
367836163,4095,0
367840163,0,0
367844163,0,0
367848163,3927,0
367852163,4095,0
367856163,4095,0
367860163,0,0
367864163,0,0
367868163,3987,0
367872163,4095,0
367876163,4095,0
367880163,0,0
367884163,0,0
367888163,4095,0
367892163,4095,0
367896163,4095,0
367900163,0,0
367904163,0,0
367908163,4095,0
367912163,4095,0
367916163,4095,0
367920163,0,0
367924163,0,0
367928163,4095,0
367932163,4095,0
367936163,4095,0
367940163,0,0
367944163,0,0
367948163,4095,0
367952163,4095,0
367956163,3992,0
367960163,0,0
367964163,0,0
367968163,4095,0
367972163,4095,0
367976163,3815,0
367980163,0,0
367984163,0,0
367988163,4095,0
367992163,4095,0
367996163,3885,0
368000163,0,0
368004163,0,0
368008163,4095,0
368012163,4095,0
368016163,3817,0
368020163,0,0
368024163,0,0
368028163,4095,0
368032163,4095,0
368036163,3615,0
368040163,0,0
368044163,0,0
368048163,4095,0
368052163,4095,0
368056163,3464,0
368060163,0,0
368064163,0,0
368068163,4095,0
368072163,4095,0
368076163,3260,0
368080163,0,0
368084163,0,0
368088163,4095,0
368092163,4095,0
368096163,3236,0
368100163,0,0
368104163,0,0
368108163,4095,0
368112163,4095,0
368116163,3109,0
368120163,0,0
368124163,0,0
368128163,4095,0
368132163,4095,0
368136163,2936,0
368140163,0,0
368144163,0,0
368148163,4095,0
368152163,4095,0
368156163,2814,0
368160163,0,0
368164163,0,0
368168163,4095,0
368172163,4095,0
368176163,2875,0
368180163,0,0
368184163,0,0
368188163,4095,0
368192163,4095,0
368196163,2809,0
368200163,0,0
368204163,0,0
368208163,4095,0
368212163,4095,0
368216163,2616,0
368220163,0,0
368224163,0,0
368228163,4095,0
368232163,4095,0
368236163,2452,0
368240163,0,0
368244163,0,0
368248163,4095,0
368252163,4095,0
368256163,2284,0
368260163,0,0
368264163,0,0
368268163,4095,0
368272163,4095,0
368276163,2235,0
368280163,0,0
368284163,0,0
368288163,4095,0
368292163,4095,0
368296163,2141,0
368300163,0,0
368304163,0,0
368308163,4095,0
368312163,4095,0
368316163,1981,0
368320163,0,0
368324163,0,0
368328163,4095,0
368332163,4095,0
368336163,1770,0
368340163,0,0
368344163,0,0
368348163,4095,0
368352163,4095,0
368356163,1803,0
368360163,0,0
368364163,0,0
368368163,4095,0
368372163,4095,0
368376163,1684,0
368380163,0,0
368384163,0,0
368388163,4095,0
368392163,4095,0
368396163,1503,0
368400163,0,0
368404163,0,0
368408163,4095,0
368412163,4095,0
368416163,1303,0
368420163,0,0
368424163,0,0
368428163,4095,0
368432163,4095,0
368436163,1075,0
368440163,0,0
368444163,0,0
368448163,4095,0
368452163,4095,0
368456163,1041,0
368460163,0,0
368464163,0,0
368468163,4095,0
368472163,4095,0
368476163,951,0
368480163,0,0
368484163,0,0
368488163,4095,0
368492163,4095,0
368496163,767,0
368500163,0,0
368504163,0,0
368508163,4095,0
368512163,4095,0
368516163,529,0
368520163,0,0
368524163,0,0
368528163,4095,0
368532163,4095,0
368536163,595,0
368540163,0,0
368544163,0,0
368548163,4095,0
368552163,4095,0
368556163,529,0
368560163,0,0
368564163,0,0
368568163,4095,0
368572163,4095,0
368576163,277,0
368580163,0,0
368584163,0,0
368588163,4095,0
368592163,4095,0
368596163,109,0
368600163,0,0
368604163,0,0
368608163,4095,0
368612163,4095,0
368616163,0,0
368620163,0,0
368624163,0,0
368628163,4095,0
368632163,4095,0
368636163,0,0
368640163,0,0
368644163,105,0
368648163,4095,0
368652163,4095,0
368656163,0,0
368660163,0,0
368664163,140,0
368668163,4095,0
368672163,4095,0
368676163,0,0
368680163,0,0
368684163,209,0
368688163,4095,0
368692163,4095,0
368696163,0,0
368700163,0,0
368704163,224,0
368708163,4095,0
368712163,4095,0
368716163,0,0
368720163,0,0
368724163,335,0
368728163,4095,0
368732163,4095,0
368736163,0,0
368740163,0,0
368744163,443,0
368748163,4095,0
368752163,4095,0
368756163,0,0
368760163,0,0
368764163,477,0
368768163,4095,0
368772163,4095,0
368776163,0,0
368780163,0,0
368784163,527,0
368788163,4095,0
368792163,4095,0
368796163,0,0
368800163,0,0
368804163,681,0
368808163,4095,0
368812163,4095,0
368816163,0,0
368820163,0,0
368824163,840,0
368828163,4095,0
368832163,4095,0
368836163,0,0
368840163,0,0
368844163,862,0
368848163,4095,0
368852163,4095,0
368856163,0,0
368860163,0,0
368864163,935,0
368868163,4095,0
368872163,4095,0
368876163,0,0
368880163,0,0
368884163,999,0
368888163,4095,0
368892163,4095,0
368896163,0,0
368900163,0,0
368904163,1198,0
368908163,4095,0
368912163,4095,0
368916163,0,0
368920163,0,0
368924163,1357,0
368928163,4095,0
368932163,4095,0
368936163,0,0
368940163,0,0
368944163,1427,0
368948163,4095,0
368952163,4095,0
368956163,0,0
368960163,0,0
368964163,1484,0
368968163,4095,0
368972163,4095,0
368976163,0,0
368980163,0,0
368984163,1661,0
368988163,4095,0
368992163,4095,0
368996163,0,0
369000163,0,0
369004163,1894,0
369008163,4095,0
369012163,4095,0
369016163,0,0
369020163,0,0
369024163,1931,0
369028163,4095,0
369032163,4095,0
369036163,0,0
369040163,0,0
369044163,2037,0
369048163,4095,0
369052163,4095,0
369056163,0,0
369060163,0,0
369064163,2077,0
369068163,4095,0
369072163,4095,0
369076163,0,0
369080163,0,0
369084163,2250,0
369088163,4095,0
369092163,4095,0
369096163,0,0
369100163,0,0
369104163,2397,0
369108163,4095,0
369112163,4095,0
369116163,0,0
369120163,0,0
369124163,2455,0
369128163,4095,0
369132163,4095,0
369136163,0,0
369140163,0,0
369144163,2488,0
369148163,4095,0
369152163,4095,0
369156163,0,0
369160163,0,0
369164163,2747,0
369168163,4095,0
369172163,4095,0
369176163,0,0
369180163,0,0
369184163,3060,0
369188163,4095,0
369192163,4095,0
369196163,0,0
369200163,0,0
369204163,3096,0
369208163,4095,0
369212163,4095,0
369216163,0,0
369220163,0,0
369224163,3248,0
369228163,4095,0
369232163,4095,0
369236163,0,0
369240163,0,0
369244163,3347,0
369248163,4095,0
369252163,4095,0
369256163,0,0
369260163,0,0
369264163,3764,0
369268163,4095,0
369272163,4095,0
369276163,0,0
369280163,0,0
369284163,4095,0
369288163,4095,0
369292163,4095,0
369296163,0,0
369300163,0,0
369304163,4095,0
369308163,4095,0
369312163,4095,0
369316163,0,0
369320163,0,0
369324163,4095,0
369328163,4095,0
369332163,4095,0
369336163,0,0
369340163,0,0
369344163,4095,0
369348163,4095,0
369352163,4095,0
369356163,0,0
369360163,0,0
369364163,4095,0
369368163,4095,0
369372163,4095,0
369376163,0,0
369380163,0,0
369384163,4095,0
369388163,4095,0
369392163,3965,0
369396163,0,0
369400163,0,0
369404163,4095,0
369408163,4095,0
369412163,3789,0
369416163,0,0
369420163,0,0
369424163,4095,0
369428163,4095,0
369432163,3694,0
369436163,0,0
369440163,0,0
369444163,4095,0
369448163,4095,0
369452163,3751,0
369456163,0,0
369460163,0,0
369464163,4095,0
369468163,4095,0
369472163,3517,0
369476163,0,0
369480163,0,0
369484163,4095,0
369488163,4095,0
369492163,3351,0
369496163,0,0
369500163,0,0
369504163,4095,0
369508163,4095,0
369512163,3181,0
369516163,0,0
369520163,0,0
369524163,4095,0
369528163,4095,0
369532163,3119,0
369536163,0,0
369540163,0,0
369544163,4095,0
369548163,4095,0
369552163,3044,0
369556163,0,0
369560163,0,0
369564163,4095,0
369568163,4095,0
369572163,2889,0
369576163,0,0
369580163,0,0
369584163,4095,0
369588163,4095,0
369592163,2697,0
369596163,0,0
369600163,0,0
369604163,4095,0
369608163,4095,0
369612163,2632,0
369616163,0,0
369620163,0,0
369624163,4095,0
369628163,4095,0
369632163,2604,0
369636163,0,0
369640163,0,0
369644163,4095,0
369648163,4095,0
369652163,2484,0
369656163,0,0
369660163,0,0
369664163,4095,0
369668163,4095,0
369672163,2310,0
369676163,0,0
369680163,0,0
369684163,4095,0
369688163,4095,0
369692163,2151,0
369696163,0,0
369700163,0,0
369704163,4095,0
369708163,4095,0
369712163,2085,0
369716163,0,0
369720163,0,0
369724163,4095,0
369728163,4095,0
369732163,2021,0
369736163,0,0
369740163,0,0
369744163,4095,0
369748163,4095,0
369752163,1847,0
369756163,0,0
369760163,0,0
369764163,4095,0
369768163,4095,0
369772163,1637,0
369776163,0,0
369780163,0,0
369784163,4095,0
369788163,4095,0
369792163,1545,0
369796163,0,0
369800163,0,0
369804163,4095,0
369808163,4095,0
369812163,1589,0
369816163,0,0
369820163,0,0
369824163,4095,0
369828163,4095,0
369832163,1449,0
369836163,0,0
369840163,0,0
369844163,4095,0
369848163,4095,0
369852163,1262,0
369856163,0,0
369860163,0,0
369864163,4095,0
369868163,4095,0
369872163,1075,0
369876163,0,0
369880163,0,0
369884163,4095,0
369888163,4095,0
369892163,1047,0
369896163,0,0
369900163,0,0
369904163,4095,0
369908163,4095,0
369912163,920,0
369916163,0,0
369920163,0,0
369924163,4095,0
369928163,4095,0
369932163,691,0
369936163,0,0
369940163,0,0
369944163,4095,0
369948163,4095,0
369952163,408,0
369956163,0,0
369960163,0,0
369964163,4095,0
369968163,4095,0
369972163,236,0
369976163,0,0
369980163,0,0
369984163,4095,0
369988163,4095,0
369992163,303,0
369996163,0,0
370000163,0,0
370004163,4095,0
370008163,4095,0
370012163,139,0
370016163,0,0
370020163,0,0
370024163,4095,0
370028163,4095,0
370032163,0,0
370036163,0,0
370040163,0,0
370044163,4095,0
370048163,4095,0
370052163,0,0
370056163,0,0
370060163,0,0
370064163,4095,0
370068163,4095,0
370072163,0,0
370076163,0,0
370080163,169,0
370084163,4095,0
370088163,4095,0
370092163,0,0
370096163,0,0
370100163,207,0
370104163,4095,0
370108163,4095,0
370112163,0,0
370116163,0,0
370120163,261,0
370124163,4095,0
370128163,4095,0
370132163,0,0
370136163,0,0
370140163,296,0
370144163,4095,0
370148163,4095,0
370152163,0,0
370156163,0,0
370160163,373,0
370164163,4095,0
370168163,4095,0
370172163,0,0
370176163,0,0
370180163,535,0
370184163,4095,0
370188163,4095,0
370192163,0,0
370196163,0,0
370200163,615,0
370204163,4095,0
370208163,4095,0
370212163,0,0
370216163,0,0
370220163,674,0
370224163,4095,0
370228163,4095,0
370232163,0,0
370236163,0,0
370240163,724,0
370244163,4095,0
370248163,4095,0
370252163,0,0
370256163,0,0
370260163,968,0
370264163,4095,0
370268163,4095,0
370272163,0,0
370276163,0,0
370280163,1013,0
370284163,4095,0
370288163,4095,0
370292163,0,0
370296163,0,0
370300163,1099,0
370304163,4095,0
370308163,4095,0
370312163,0,0
370316163,0,0
370320163,1142,0
370324163,4095,0
370328163,4095,0
370332163,0,0
370336163,0,0
370340163,1300,0
370344163,4095,0
370348163,4095,0
370352163,0,0
370356163,0,0
370360163,1493,0
370364163,4095,0
370368163,4095,0
370372163,0,0
370376163,0,0
370380163,1559,0
370384163,4095,0
370388163,4095,0
370392163,0,0
370396163,0,0
370400163,1655,0
370404163,4095,0
370408163,4095,0
370412163,0,0
370416163,0,0
370420163,1695,0
370424163,4095,0
370428163,4095,0
370432163,0,0
370436163,0,0
370440163,2037,0
370444163,4095,0
370448163,4095,0
370452163,0,0
370456163,0,0
370460163,2172,0
370464163,4095,0
370468163,4095,0
370472163,0,0
370476163,0,0
370480163,2251,0
370484163,4095,0
370488163,4095,0
370492163,0,0
370496163,0,0
370500163,2341,0
370504163,4095,0
370508163,4095,0
370512163,0,0
370516163,0,0
370520163,2425,0
370524163,4095,0
370528163,4095,0
370532163,0,0
370536163,0,0
370540163,2687,0
370544163,4095,0
370548163,4095,0
370552163,0,0
370556163,0,0
370560163,2807,0
370564163,4095,0
370568163,4095,0
370572163,0,0
370576163,0,0
370580163,2907,0
370584163,4095,0
370588163,4095,0
370592163,0,0
370596163,0,0
370600163,3055,0
370604163,4095,0
370608163,4095,0
370612163,0,0
370616163,0,0
370620163,3501,0
370624163,4095,0
370628163,4095,0
370632163,0,0
370636163,0,0
370640163,3685,0
370644163,4095,0
370648163,4095,0
370652163,0,0
370656163,0,0
370660163,3867,0
370664163,4095,0
370668163,4095,0
370672163,0,0
370676163,0,0
370680163,3995,0
370684163,4095,0
370688163,4095,0
370692163,0,0
370696163,0,0
370700163,4095,0
370704163,4095,0
370708163,4095,0
370712163,0,0
370716163,0,0
370720163,4095,0
370724163,4095,0
370728163,4095,0
370732163,0,0
370736163,0,0
370740163,4095,0
370744163,4095,0
370748163,4095,0
370752163,0,0
370756163,0,0
370760163,4095,0
370764163,4095,0
370768163,4095,0
370772163,0,0
370776163,0,0
370780163,4095,0
370784163,4095,0
370788163,4069,0
370792163,0,0
370796163,0,0
370800163,4095,0
370804163,4095,0
370808163,4028,0
370812163,0,0
370816163,0,0
370820163,4095,0
370824163,4095,0
370828163,3849,0
370832163,0,0
370836163,0,0
370840163,4095,0
370844163,4095,0
370848163,3669,0
370852163,0,0
370856163,0,0
370860163,4095,0
370864163,4095,0
370868163,3419,0
370872163,0,0
370876163,0,0
370880163,4095,0
370884163,4095,0
370888163,3464,0
370892163,0,0
370896163,0,0
370900163,4095,0
370904163,4095,0
370908163,3339,0
370912163,0,0
370916163,0,0
370920163,4095,0
370924163,4095,0
370928163,3164,0
370932163,0,0
370936163,0,0
370940163,4095,0
370944163,4095,0
370948163,2983,0
370952163,0,0
370956163,0,0
370960163,4095,0
370964163,4095,0
370968163,2847,0
370972163,0,0
370976163,0,0
370980163,4095,0
370984163,4095,0
370988163,2828,0
370992163,0,0
370996163,0,0
371000163,4095,0
371004163,4095,0
371008163,2717,0
371012163,0,0
371016163,0,0
371020163,4095,0
371024163,4095,0
371028163,2605,0
371032163,0,0
371036163,0,0
371040163,4095,0
371044163,4095,0
371048163,2413,0
371052163,0,0
371056163,0,0
371060163,4095,0
371064163,4095,0
371068163,2438,0
371072163,0,0
371076163,0,0
371080163,4095,0
371084163,4095,0
371088163,2357,0
371092163,0,0
371096163,0,0
371100163,4095,0
371104163,4095,0
371108163,2172,0
371112163,0,0
371116163,0,0
371120163,4095,0
371124163,4095,0
371128163,1996,0
371132163,0,0
371136163,0,0
371140163,4095,0
371144163,4095,0
371148163,1773,0
371152163,0,0
371156163,0,0
371160163,4095,0
371164163,4095,0
371168163,1725,0
371172163,0,0
371176163,0,0
371180163,4095,0
371184163,4095,0
371188163,1598,0
371192163,0,0
371196163,0,0
371200163,4095,0
371204163,4095,0
371208163,1401,0
371212163,0,0
371216163,0,0
371220163,4095,0
371224163,4095,0
371228163,1242,0
371232163,0,0
371236163,0,0
371240163,4095,0
371244163,4095,0
371248163,1277,0
371252163,0,0
371256163,0,0
371260163,4095,0
371264163,4095,0
371268163,1131,0
371272163,0,0
371276163,0,0
371280163,4095,0
371284163,4095,0
371288163,941,0
371292163,0,0
371296163,0,0
371300163,4095,0
371304163,4095,0
371308163,761,0
371312163,0,0
371316163,0,0
371320163,4095,0
371324163,4095,0
371328163,645,0
371332163,0,0
371336163,0,0
371340163,4095,0
371344163,4095,0
371348163,559,0
371352163,0,0
371356163,0,0
371360163,4095,0
371364163,4095,0
371368163,420,0
371372163,0,0
371376163,0,0
371380163,4095,0
371384163,4095,0
371388163,216,0
371392163,0,0
371396163,0,0
371400163,4095,0
371404163,4095,0
371408163,0,0
371412163,0,0
371416163,0,0
371420163,4095,0
371424163,4095,0
371428163,17,0
371432163,0,0
371436163,0,0
371440163,4095,0
371444163,4095,0
371448163,0,0
371452163,0,0
371456163,83,0
371460163,4095,0
371464163,4095,0
371468163,0,0
371472163,0,0
371476163,118,0
371480163,4095,0
371484163,4095,0
371488163,0,0
371492163,0,0
371496163,150,0
371500163,4095,0
371504163,4095,0
371508163,0,0
371512163,0,0
371516163,264,0
371520163,4095,0
371524163,4095,0
371528163,0,0
371532163,0,0
371536163,355,0
371540163,4095,0
371544163,4095,0
371548163,0,0
371552163,0,0
371556163,364,0
371560163,4095,0
371564163,4095,0
371568163,0,0
371572163,0,0
371576163,374,0
371580163,4095,0
371584163,4095,0
371588163,0,0
371592163,0,0
371596163,333,0
371600163,4095,0
371604163,4095,0
371608163,0,0
371612163,0,0
371616163,395,0
371620163,4095,0
371624163,4095,0
371628163,0,0
371632163,0,0
371636163,393,0
371640163,4095,0
371644163,4095,0
371648163,0,0
371652163,0,0
371656163,445,0
371660163,4095,0
371664163,4095,0
371668163,0,0
371672163,0,0
371676163,489,0
371680163,4095,0
371684163,4095,0
371688163,0,0
371692163,0,0
371696163,711,0
371700163,4095,0
371704163,4095,0
371708163,0,0
371712163,0,0
371716163,871,0
371720163,4095,0
371724163,4095,0
371728163,0,0
371732163,0,0
371736163,964,0
371740163,4095,0
371744163,4095,0
371748163,0,0
371752163,0,0
371756163,1067,0
371760163,4095,0
371764163,4095,0
371768163,0,0
371772163,0,0
371776163,1195,0
371780163,4095,0
371784163,4095,0
371788163,0,0
371792163,0,0
371796163,1449,0
371800163,4095,0
371804163,4095,0
371808163,0,0
371812163,0,0
371816163,1579,0
371820163,4095,0
371824163,4095,0
371828163,0,0
371832163,0,0
371836163,1757,0
371840163,4095,0
371844163,4095,0
371848163,0,0
371852163,0,0
371856163,1859,0
371860163,4095,0
371864163,4095,0
371868163,0,0
371872163,0,0
371876163,2191,0
371880163,4095,0
371884163,4095,0
371888163,0,0
371892163,0,0
371896163,2441,0
371900163,4095,0
371904163,4095,0
371908163,0,0
371912163,0,0
371916163,2661,0
371920163,4095,0
371924163,4095,0
371928163,0,0
371932163,0,0
371936163,2862,0
371940163,4095,0
371944163,4095,0
371948163,0,0
371952163,0,0
371956163,3090,0
371960163,4095,0
371964163,4095,0
371968163,0,0
371972163,0,0
371976163,3551,0
371980163,4095,0
371984163,4095,0
371988163,0,0
371992163,0,0
371996163,3979,0
372000163,4095,0
372004163,4095,0
372008163,0,0
372012163,0,0
372016163,4095,0
372020163,4095,0
372024163,4095,0
372028163,0,0
372032163,0,0
372036163,4095,0
372040163,4095,0
372044163,4095,0
372048163,0,0
372052163,0,0
372056163,4095,0
372060163,4095,0
372064163,4095,0
372068163,0,0
372072163,0,0
372076163,4095,0
372080163,4095,0
372084163,4095,0
372088163,0,0
372092163,0,0
372096163,3275,0
372100163,4095,0
372104163,2967,0
372108163,0,0
372112163,0,0
372116163,2750,0
372120163,4095,0
372124163,2719,0
372128163,0,0
372132163,0,0
372136163,2953,0
372140163,4095,0
372144163,3033,0
372148163,0,0
372152163,0,0
372156163,3724,0
372160163,4095,0
372164163,2419,0
372168163,0,0
372172163,0,0
372176163,3195,0
372180163,4095,0
372184163,2212,0
372188163,0,0
372192163,0,0
372196163,3338,0
372200163,4095,0
372204163,2025,0
372208163,0,0
372212163,0,0
372216163,3573,0
372220163,4095,0
372224163,1917,0
372228163,0,0
372232163,0,0
372236163,4095,0
372240163,4095,0
372244163,2551,0
372248163,0,0
372252163,0,0
372256163,4095,0
372260163,4095,0
372264163,2459,0
372268163,0,0
372272163,0,0
372276163,4095,0
372280163,4095,0
372284163,1781,0
372288163,0,0
372292163,0,0
372296163,4095,0
372300163,4095,0
372304163,1109,0
372308163,0,0
372312163,0,0
372316163,4095,0
372320163,4095,0
372324163,1019,0
372328163,0,0
372332163,0,0
372336163,4095,0
372340163,4095,0
372344163,2180,0
372348163,0,0
372352163,0,0
372356163,4095,0
372360163,4095,0
372364163,2781,0
372368163,0,0
372372163,0,0
372376163,4095,0
372380163,4095,0
372384163,2991,0
372388163,0,0
372392163,0,0
372396163,4095,0
372400163,4095,0
372404163,2863,0
372408163,0,0
372412163,0,0
372416163,4095,0
372420163,4095,0
372424163,2812,0
372428163,0,0
372432163,0,0
372436163,4095,0
372440163,4095,0
372444163,2655,0
372448163,0,0
372452163,0,0
372456163,4095,0
372460163,4095,0
372464163,2443,0
372468163,0,0
372472163,0,0
372476163,4095,0
372480163,4095,0
372484163,1481,0
372488163,0,0
372492163,0,0
372496163,4095,0
372500163,4095,0
372504163,715,0
372508163,0,0
372512163,0,0
372516163,4095,0
372520163,4095,0
372524163,0,0
372528163,0,0
372532163,0,0
372536163,4095,0
372540163,4095,0
372544163,0,0
372548163,0,0
372552163,0,0
372556163,4095,0
372560163,4095,0
372564163,0,0
372568163,0,0
372572163,0,0
372576163,4095,0
372580163,4095,0
372584163,0,0
372588163,0,0
372592163,0,0
372596163,4095,0
372600163,4095,0
372604163,0,0
372608163,0,0
372612163,0,0
372616163,4095,0
372620163,4095,0
372624163,0,0
372628163,0,0
372632163,0,0
372636163,4095,0
372640163,4095,0
372644163,314,0
372648163,0,0
372652163,151,0
372656163,4095,0
372660163,4095,0
372664163,1531,0
372668163,0,0
372672163,1007,0
372676163,4095,0
372680163,4095,0
372684163,2373,0
372688163,0,0
372692163,1999,0
372696163,4095,0
372700163,4095,0
372704163,2763,0
372708163,0,0
372712163,2377,0
372716163,4095,0
372720163,4095,0
372724163,2633,0
372728163,0,0
372732163,2205,0
372736163,4095,0
372740163,4095,0
372744163,2153,0
372748163,0,0
372752163,0,0
372756163,4095,0
372760163,4095,0
372764163,0,0
372768163,0,0
372772163,0,0
372776163,0,0
372780163,0,0
372784163,0,0
372788163,0,0
372792163,0,0
372796163,0,0
372800163,0,0
372804163,0,0
372808163,0,0
372812163,0,0
372816163,0,0
372820163,0,0
372824163,0,0
372828163,0,0
372832163,0,0
372836163,0,0
372840163,0,0
372844163,0,0
372848163,0,0
372852163,0,0
372856163,0,0
372860163,0,0
372864163,0,0
372868163,0,0
372872163,0,0
372876163,4095,0
372880163,4095,0
372884163,0,0
372888163,0,0
372892163,1107,0
372896163,4095,0
372900163,4095,0
372904163,891,0
372908163,0,0
372912163,4095,0
372916163,4095,0
372920163,4095,0
372924163,3372,0
372928163,444,0
372932163,4095,0
372936163,4095,0
372940163,4095,0
372944163,4095,0
372948163,1689,0
372952163,4095,0
372956163,4095,0
372960163,4095,0
372964163,4095,0
372968163,1164,0
372972163,4095,0
372976163,4095,0
372980163,4095,0
372984163,3973,0
372988163,37,0
372992163,4095,0
372996163,4095,0
373000163,4095,0
373004163,2843,0
373008163,0,0
373012163,4095,0
373016163,4095,0
373020163,4095,0
373024163,1876,0
373028163,0,0
373032163,4095,0
373036163,4095,0
373040163,4095,0
373044163,974,0
373048163,0,0
373052163,4095,0
373056163,4095,0
373060163,4095,0
373064163,498,0
373068163,0,0
373072163,4095,0
373076163,4095,0
373080163,4095,0
373084163,57,0
373088163,0,0
373092163,4095,0
373096163,4095,0
373100163,4095,0
373104163,0,0
373108163,0,0
373112163,4095,0
373116163,4095,0
373120163,4095,0
373124163,0,0
373128163,0,0
373132163,4095,0
373136163,4095,0
373140163,4095,0
373144163,0,0
373148163,0,0
373152163,4095,0
373156163,4095,0
373160163,4095,0
373164163,0,0
373168163,0,0
373172163,4095,0
373176163,4095,0
373180163,4095,0
373184163,0,0
373188163,0,0
373192163,4095,0
373196163,4095,0
373200163,4095,0
373204163,0,0
373208163,0,0
373212163,4095,0
373216163,4095,0
373220163,4095,0
373224163,126,0
373228163,0,0
373232163,4095,0
373236163,4095,0
373240163,4095,0
373244163,0,0
373248163,0,0
373252163,4095,0
373256163,4095,0
373260163,4095,0
373264163,0,0
373268163,0,0
373272163,4095,0
373276163,4095,0
373280163,4095,0
373284163,0,0
373288163,0,0
373292163,4095,0
373296163,4095,0
373300163,4095,0
373304163,0,0
373308163,0,0
373312163,4095,0
373316163,4095,0
373320163,4095,0
373324163,0,0
373328163,0,0
373332163,4095,0
373336163,4095,0
373340163,4095,0
373344163,0,0
373348163,0,0
373352163,4095,0
373356163,4095,0
373360163,4095,0
373364163,0,0
373368163,0,0
373372163,4095,0
373376163,4095,0
373380163,4095,0
373384163,0,0
373388163,0,0
373392163,4095,0
373396163,4095,0
373400163,4095,0
373404163,0,0
373408163,0,0
373412163,4095,0
373416163,4095,0
373420163,4095,0
373424163,0,0
373428163,0,0
373432163,4095,0
373436163,4095,0
373440163,4095,0
373444163,0,0
373448163,0,0
373452163,4095,0
373456163,4095,0
373460163,4095,0
373464163,0,0
373468163,0,0
373472163,4095,0
373476163,4095,0
373480163,4095,0
373484163,0,0
373488163,0,0
373492163,4095,0
373496163,4095,0
373500163,4095,0
373504163,0,0
373508163,0,0
373512163,4095,0
373516163,4095,0
373520163,4095,0
373524163,0,0
373528163,0,0
373532163,4095,0
373536163,4095,0
373540163,4095,0
373544163,0,0
373548163,0,0
373552163,4095,0
373556163,4095,0
373560163,4095,0
373564163,0,0
373568163,0,0
373572163,4095,0
373576163,4095,0
373580163,4095,0
373584163,0,0
373588163,0,0
373592163,4095,0
373596163,4095,0
373600163,4095,0
373604163,0,0
373608163,121,0
373612163,4095,0
373616163,4095,0
373620163,4095,0
373624163,0,0
373628163,145,0
373632163,4095,0
373636163,4095,0
373640163,4095,0
373644163,0,0
373648163,169,0
373652163,4095,0
373656163,4095,0
373660163,4095,0
373664163,0,0
373668163,133,0
373672163,4095,0
373676163,4095,0
373680163,4095,0
373684163,0,0
373688163,125,0
373692163,4095,0
373696163,4095,0
373700163,4095,0
373704163,0,0
373708163,145,0
373712163,4095,0
373716163,4095,0
373720163,4095,0
373724163,0,0
373728163,221,0
373732163,4095,0
373736163,4095,0
373740163,4095,0
373744163,0,0
373748163,471,0
373752163,4095,0
373756163,4095,0
373760163,4095,0
373764163,0,0
373768163,969,0
373772163,4095,0
373776163,4095,0
373780163,4095,0
373784163,0,0
373788163,1123,0
373792163,4095,0
373796163,4095,0
373800163,4095,0
373804163,0,0
373808163,527,0
373812163,4095,0
373816163,4095,0
373820163,3796,0
373824163,0,0
373828163,125,0
373832163,4095,0
373836163,4095,0
373840163,3103,0
373844163,0,0
373848163,0,0
373852163,4095,0
373856163,4095,0
373860163,2675,0
373864163,0,0
373868163,0,0
373872163,4095,0
373876163,4095,0
373880163,2316,0
373884163,0,0
373888163,0,0
373892163,4095,0
373896163,4095,0
373900163,2129,0
373904163,0,0
373908163,0,0
373912163,4095,0
373916163,4095,0
373920163,1955,0
373924163,0,0
373928163,0,0
373932163,4095,0
373936163,4095,0
373940163,1939,0
373944163,0,0
373948163,0,0
373952163,4095,0
373956163,4095,0
373960163,1775,0
373964163,0,0
373968163,0,0
373972163,4095,0
373976163,4095,0
373980163,1402,0
373984163,0,0
373988163,0,0
373992163,4095,0
373996163,4095,0
374000163,1077,0
374004163,0,0
374008163,0,0
374012163,4095,0
374016163,4095,0
374020163,813,0
374024163,0,0
374028163,0,0
374032163,4095,0
374036163,4095,0
374040163,694,0
374044163,0,0
374048163,117,0
374052163,4095,0
374056163,4095,0
374060163,604,0
374064163,0,0
374068163,167,0
374072163,4095,0
374076163,4095,0
374080163,361,0
374084163,0,0
374088163,151,0
374092163,4095,0
374096163,4095,0
374100163,0,0
374104163,0,0
374108163,36,0
374112163,4095,0
374116163,4095,0
374120163,0,0
374124163,0,0
374128163,5,0
374132163,4095,0
374136163,4095,0
374140163,0,0
374144163,0,0
374148163,0,0
374152163,4095,0
374156163,4095,0
374160163,0,0
374164163,0,0
374168163,0,0
374172163,4095,0
374176163,4095,0
374180163,0,0
374184163,0,0
374188163,0,0
374192163,4095,0
374196163,4095,0
374200163,0,0
374204163,0,0
374208163,0,0
374212163,4095,0
374216163,4095,0
374220163,0,0
374224163,0,0
374228163,291,0
374232163,4095,0
374236163,4095,0
374240163,0,0
374244163,0,0
374248163,453,0
374252163,4095,0
374256163,4095,0
374260163,0,0
374264163,0,0
374268163,494,0
374272163,4095,0
374276163,4095,0
374280163,0,0
374284163,0,0
374288163,543,0
374292163,4095,0
374296163,4095,0
374300163,0,0
374304163,0,0
374308163,680,0
374312163,4095,0
374316163,4095,0
374320163,0,0
374324163,0,0
374328163,791,0
374332163,4095,0
374336163,4095,0
374340163,0,0
374344163,0,0
374348163,800,0
374352163,4095,0
374356163,4095,0
374360163,0,0
374364163,0,0
374368163,779,0
374372163,4095,0
374376163,4095,0
374380163,0,0
374384163,0,0
374388163,1015,0
374392163,4095,0
374396163,4095,0
374400163,0,0
374404163,0,0
374408163,1318,0
374412163,4095,0
374416163,4095,0
374420163,0,0
374424163,0,0
374428163,1618,0
374432163,4095,0
374436163,4095,0
374440163,0,0
374444163,0,0
374448163,1254,0
374452163,4095,0
374456163,4095,0
374460163,0,0
374464163,0,0
374468163,1528,0
374472163,4095,0
374476163,4095,0
374480163,0,0
374484163,0,0
374488163,1835,0
374492163,4095,0
374496163,4095,0
374500163,0,0
374504163,0,0
374508163,1885,0
374512163,4095,0
374516163,4095,0
374520163,0,0
374524163,0,0
374528163,1907,0
374532163,4095,0
374536163,4095,0
374540163,0,0
374544163,0,0
374548163,1845,0
374552163,4095,0
374556163,4095,0
374560163,0,0
374564163,0,0
374568163,2285,0
374572163,4095,0
374576163,4095,0
374580163,0,0
374584163,0,0
374588163,2417,0
374592163,4095,0
374596163,4095,0
374600163,0,0
374604163,0,0
374608163,2439,0
374612163,4095,0
374616163,4095,0
374620163,0,0
374624163,0,0
374628163,2401,0
374632163,4095,0
374636163,4095,0
374640163,0,0
374644163,0,0
374648163,2520,0
374652163,4095,0
374656163,4095,0
374660163,0,0
374664163,0,0
374668163,3066,0
374672163,4095,0
374676163,4095,0
374680163,0,0
374684163,0,0
374688163,3229,0
374692163,4095,0
374696163,4095,0
374700163,0,0
374704163,0,0
374708163,3228,0
374712163,4095,0
374716163,4077,0
374720163,0,0
374724163,0,0
374728163,3076,0
374732163,4095,0
374736163,3762,0
374740163,0,0
374744163,0,0
374748163,3881,0
374752163,4095,0
374756163,3868,0
374760163,0,0
374764163,0,0
374768163,4095,0
374772163,4095,0
374776163,3608,0
374780163,0,0
374784163,0,0
374788163,4095,0
374792163,4095,0
374796163,3159,0
374800163,0,0
374804163,0,0
374808163,4021,0
374812163,4095,0
374816163,2962,0
374820163,0,0
374824163,0,0
374828163,4035,0
374832163,4095,0
374836163,3291,0
374840163,0,0
374844163,0,0
374848163,4095,0
374852163,4095,0
374856163,3285,0
374860163,0,0
374864163,0,0
374868163,4095,0
374872163,4095,0
374876163,2940,0
374880163,0,0
374884163,0,0
374888163,4095,0
374892163,4095,0
374896163,2621,0
374900163,0,0
374904163,0,0
374908163,4095,0
374912163,4095,0
374916163,2299,0
374920163,0,0
374924163,0,0
374928163,4095,0
374932163,4095,0
374936163,2635,0
374940163,0,0
374944163,0,0
374948163,4095,0
374952163,4095,0
374956163,2266,0
374960163,0,0
374964163,0,0
374968163,4095,0
374972163,4095,0
374976163,1603,0
374980163,0,0
374984163,0,0
374988163,4095,0
374992163,4095,0
374996163,2053,0
375000163,0,0
375004163,0,0
375008163,4095,0
375012163,4095,0
375016163,2671,0
375020163,0,0
375024163,0,0
375028163,4095,0
375032163,4095,0
375036163,2373,0
375040163,0,0
375044163,0,0
375048163,4095,0
375052163,4095,0
375056163,1747,0
375060163,0,0
375064163,0,0
375068163,4095,0
375072163,4095,0
375076163,1271,0
375080163,0,0
375084163,0,0
375088163,4095,0
375092163,4095,0
375096163,1253,0
375100163,0,0
375104163,0,0
375108163,4095,0
375112163,4095,0
375116163,1691,0
375120163,0,0
375124163,0,0
375128163,4095,0
375132163,4095,0
375136163,1701,0
375140163,0,0
375144163,0,0
375148163,4095,0
375152163,4095,0
375156163,1444,0
375160163,0,0
375164163,0,0
375168163,4095,0
375172163,4095,0
375176163,859,0
375180163,0,0
375184163,0,0
375188163,4095,0
375192163,4095,0
375196163,1053,0
375200163,0,0
375204163,0,0
375208163,4095,0
375212163,4095,0
375216163,1239,0
375220163,0,0
375224163,0,0
375228163,4095,0
375232163,4095,0
375236163,967,0
375240163,0,0
375244163,0,0
375248163,4095,0
375252163,4095,0
375256163,614,0
375260163,0,0
375264163,0,0
375268163,4095,0
375272163,4095,0
375276163,319,0
375280163,0,0
375284163,0,0
375288163,4095,0
375292163,4095,0
375296163,511,0
375300163,0,0
375304163,0,0
375308163,4095,0
375312163,4095,0
375316163,319,0
375320163,0,0
375324163,0,0
375328163,4095,0
375332163,4095,0
375336163,0,0
375340163,0,0
375344163,0,0
375348163,4095,0
375352163,4095,0
375356163,0,0
375360163,0,0
375364163,0,0
375368163,4095,0
375372163,4095,0
375376163,7,0
375380163,0,0
375384163,0,0
375388163,4095,0
375392163,4095,0
375396163,80,0
375400163,0,0
375404163,0,0
375408163,4095,0
375412163,4095,0
375416163,0,0
375420163,0,0
375424163,0,0
375428163,4095,0
375432163,4095,0
375436163,0,0
375440163,0,0
375444163,0,0
375448163,4095,0
375452163,4095,0
375456163,0,0
375460163,0,0
375464163,0,0
375468163,4095,0
375472163,4095,0
375476163,0,0
375480163,0,0
375484163,0,0
375488163,4095,0
375492163,4095,0
375496163,0,0
375500163,0,0
375504163,0,0
375508163,4095,0
375512163,4095,0
375516163,0,0
375520163,0,0
375524163,0,0
375528163,4095,0
375532163,4095,0
375536163,0,0
375540163,0,0
375544163,0,0
375548163,4095,0
375552163,4095,0
375556163,0,0
375560163,0,0
375564163,457,0
375568163,4095,0
375572163,4095,0
375576163,0,0
375580163,0,0
375584163,455,0
375588163,4095,0
375592163,4095,0
375596163,0,0
375600163,0,0
375604163,446,0
375608163,4095,0
375612163,4095,0
375616163,0,0
375620163,0,0
375624163,314,0
375628163,4095,0
375632163,4095,0
375636163,0,0
375640163,0,0
375644163,937,0
375648163,4095,0
375652163,4095,0
375656163,0,0
375660163,0,0
375664163,1003,0
375668163,4095,0
375672163,4095,0
375676163,0,0
375680163,0,0
375684163,951,0
375688163,4095,0
375692163,4095,0
375696163,0,0
375700163,0,0
375704163,887,0
375708163,4095,0
375712163,4095,0
375716163,0,0
375720163,0,0
375724163,941,0
375728163,4095,0
375732163,4095,0
375736163,0,0
375740163,0,0
375744163,1481,0
375748163,4095,0
375752163,4095,0
375756163,0,0
375760163,0,0
375764163,1503,0
375768163,4095,0
375772163,4095,0
375776163,0,0
375780163,0,0
375784163,1495,0
375788163,4095,0
375792163,4095,0
375796163,0,0
375800163,0,0
375804163,1397,0
375808163,4095,0
375812163,4095,0
375816163,0,0
375820163,0,0
375824163,2041,0
375828163,4095,0
375832163,4095,0
375836163,0,0
375840163,0,0
375844163,2173,0
375848163,4095,0
375852163,4095,0
375856163,0,0
375860163,0,0
375864163,2185,0
375868163,4095,0
375872163,4095,0
375876163,0,0
375880163,0,0
375884163,2070,0
375888163,4095,0
375892163,4095,0
375896163,0,0
375900163,0,0
375904163,2197,0
375908163,4095,0
375912163,4095,0
375916163,0,0
375920163,0,0
375924163,2857,0
375928163,4095,0
375932163,4095,0
375936163,0,0
375940163,0,0
375944163,2796,0
375948163,4095,0
375952163,4095,0
375956163,0,0
375960163,0,0
375964163,2749,0
375968163,4095,0
375972163,4095,0
375976163,0,0
375980163,0,0
375984163,2635,0
375988163,4095,0
375992163,4095,0
375996163,0,0
376000163,0,0
376004163,3589,0
376008163,4095,0
376012163,4095,0
376016163,0,0
376020163,0,0
376024163,3891,0
376028163,4095,0
376032163,4095,0
376036163,0,0
376040163,0,0
376044163,3814,0
376048163,4095,0
376052163,3855,0
376056163,0,0
376060163,0,0
376064163,3564,0
376068163,4095,0
376072163,3605,0
376076163,0,0
376080163,0,0
376084163,3661,0
376088163,4095,0
376092163,4027,0
376096163,0,0
376100163,0,0
376104163,4095,0
376108163,4095,0
376112163,3994,0
376116163,0,0
376120163,0,0
376124163,4095,0
376128163,4095,0
376132163,3675,0
376136163,0,0
376140163,0,0
376144163,4095,0
376148163,4095,0
376152163,3384,0
376156163,0,0
376160163,0,0
376164163,4095,0
376168163,4095,0
376172163,3707,0
376176163,0,0
376180163,0,0
376184163,4095,0
376188163,4095,0
376192163,4095,0
376196163,0,0
376200163,0,0
376204163,4095,0
376208163,4095,0
376212163,4095,0
376216163,0,0
376220163,0,0
376224163,4095,0
376228163,4095,0
376232163,3060,0
376236163,0,0
376240163,0,0
376244163,4095,0
376248163,4095,0
376252163,2508,0
376256163,0,0
376260163,0,0
376264163,4095,0
376268163,4095,0
376272163,2863,0
376276163,0,0
376280163,0,0
376284163,4095,0
376288163,4095,0
376292163,2764,0
376296163,0,0
376300163,0,0
376304163,4095,0
376308163,4095,0
376312163,2507,0
376316163,0,0
376320163,0,0
376324163,4095,0
376328163,4095,0
376332163,2231,0
376336163,0,0
376340163,0,0
376344163,4095,0
376348163,4095,0
376352163,2058,0
376356163,0,0
376360163,0,0
376364163,4095,0
376368163,4095,0
376372163,2364,0
376376163,0,0
376380163,0,0
376384163,4095,0
376388163,4095,0
376392163,2084,0
376396163,0,0
376400163,0,0
376404163,4095,0
376408163,4095,0
376412163,1433,0
376416163,0,0
376420163,0,0
376424163,4095,0
376428163,4095,0
376432163,1149,0
376436163,0,0
376440163,0,0
376444163,4095,0
376448163,4095,0
376452163,1647,0
376456163,0,0
376460163,0,0
376464163,4095,0
376468163,4095,0
376472163,1597,0
376476163,0,0
376480163,0,0
376484163,4095,0
376488163,4095,0
376492163,1321,0
376496163,0,0
376500163,0,0
376504163,4095,0
376508163,4095,0
376512163,1033,0
376516163,0,0
376520163,0,0
376524163,4095,0
376528163,4095,0
376532163,829,0
376536163,0,0
376540163,0,0
376544163,4095,0
376548163,4095,0
376552163,1170,0
376556163,0,0
376560163,0,0
376564163,4095,0
376568163,4095,0
376572163,840,0
376576163,0,0
376580163,0,0
376584163,4095,0
376588163,4095,0
376592163,164,0
376596163,0,0
376600163,0,0
376604163,4095,0
376608163,4095,0
376612163,0,0
376616163,0,0
376620163,0,0
376624163,4095,0
376628163,4095,0
376632163,569,0
376636163,0,0
376640163,0,0
376644163,4095,0
376648163,4095,0
376652163,459,0
376656163,0,0
376660163,0,0
376664163,4095,0
376668163,4095,0
376672163,137,0
376676163,0,0
376680163,0,0
376684163,4095,0
376688163,4095,0
376692163,0,0
376696163,0,0
376700163,0,0
376704163,4095,0
376708163,4095,0
376712163,0,0
376716163,0,0
376720163,0,0
376724163,4095,0
376728163,4095,0
376732163,0,0
376736163,0,0
376740163,77,0
376744163,4095,0
376748163,4095,0
376752163,0,0
376756163,0,0
376760163,36,0
376764163,4095,0
376768163,4095,0
376772163,0,0
376776163,0,0
376780163,0,0
376784163,4095,0
376788163,4095,0
376792163,0,0
376796163,0,0
376800163,84,0
376804163,4095,0
376808163,4095,0
376812163,0,0
376816163,0,0
376820163,495,0
376824163,4095,0
376828163,4095,0
376832163,0,0
376836163,0,0
376840163,472,0
376844163,4095,0
376848163,4095,0
376852163,0,0
376856163,0,0
376860163,441,0
376864163,4095,0
376868163,4095,0
376872163,0,0
376876163,0,0
376880163,445,0
376884163,4095,0
376888163,4095,0
376892163,0,0
376896163,0,0
376900163,1650,0
376904163,4095,0
376908163,4095,0
376912163,313,0
376916163,0,0
376920163,1335,0
376924163,4095,0
376928163,4095,0
376932163,0,0
376936163,0,0
376940163,909,0
376944163,4095,0
376948163,4095,0
376952163,0,0
376956163,0,0
376960163,635,0
376964163,4095,0
376968163,4095,0
376972163,0,0
376976163,0,0
376980163,921,0
376984163,4095,0
376988163,4095,0
376992163,0,0
376996163,0,0
377000163,1787,0
377004163,4095,0
377008163,4095,0
377012163,0,0
377016163,0,0
377020163,1337,0
377024163,4095,0
377028163,4095,0
377032163,0,0
377036163,0,0
377040163,1191,0
377044163,4095,0
377048163,4095,0
377052163,0,0
377056163,0,0
377060163,1283,0
377064163,4095,0
377068163,4095,0
377072163,0,0
377076163,0,0
377080163,2885,0
377084163,4095,0
377088163,4095,0
377092163,0,0
377096163,0,0
377100163,2245,0
377104163,4095,0
377108163,4095,0
377112163,0,0
377116163,0,0
377120163,1916,0
377124163,4095,0
377128163,4095,0
377132163,0,0
377136163,0,0
377140163,1932,0
377144163,4095,0
377148163,4095,0
377152163,0,0
377156163,0,0
377160163,1949,0
377164163,4095,0
377168163,4095,0
377172163,0,0
377176163,0,0
377180163,2373,0
377184163,4095,0
377188163,4095,0
377192163,0,0
377196163,0,0
377200163,2158,0
377204163,4095,0
377208163,4095,0
377212163,0,0
377216163,0,0
377220163,2463,0
377224163,4095,0
377228163,4095,0
377232163,0,0
377236163,0,0
377240163,2275,0
377244163,4095,0
377248163,4095,0
377252163,0,0
377256163,0,0
377260163,3098,0
377264163,4095,0
377268163,4095,0
377272163,0,0
377276163,0,0
377280163,3243,0
377284163,4095,0
377288163,4095,0
377292163,0,0
377296163,0,0
377300163,3197,0
377304163,4095,0
377308163,4095,0
377312163,0,0
377316163,0,0
377320163,3373,0
377324163,4095,0
377328163,4095,0
377332163,0,0
377336163,0,0
377340163,3436,0
377344163,4095,0
377348163,4095,0
377352163,0,0
377356163,0,0
377360163,3960,0
377364163,4095,0
377368163,4095,0
377372163,0,0
377376163,0,0
377380163,3791,0
377384163,4095,0
377388163,4095,0
377392163,0,0
377396163,0,0
377400163,4095,0
377404163,4095,0
377408163,4095,0
377412163,0,0
377416163,0,0
377420163,4095,0
377424163,4095,0
377428163,4095,0
377432163,0,0
377436163,0,0
377440163,4095,0
377444163,4095,0
377448163,4095,0
377452163,0,0
377456163,0,0
377460163,4095,0
377464163,4095,0
377468163,4095,0
377472163,0,0
377476163,0,0
377480163,4095,0
377484163,4095,0
377488163,4077,0
377492163,0,0
377496163,0,0
377500163,4095,0
377504163,4095,0
377508163,3398,0
377512163,0,0
377516163,0,0
377520163,4095,0
377524163,4095,0
377528163,3803,0
377532163,0,0
377536163,0,0
377540163,4095,0
377544163,4095,0
377548163,3723,0
377552163,0,0
377556163,0,0
377560163,4095,0
377564163,4095,0
377568163,3487,0
377572163,0,0
377576163,0,0
377580163,4095,0
377584163,4095,0
377588163,3327,0
377592163,0,0
377596163,0,0
377600163,4095,0
377604163,4095,0
377608163,3170,0
377612163,0,0
377616163,0,0
377620163,4095,0
377624163,4095,0
377628163,3219,0
377632163,0,0
377636163,0,0
377640163,4095,0
377644163,4095,0
377648163,3083,0
377652163,0,0
377656163,0,0
377660163,4095,0
377664163,4095,0
377668163,3199,0
377672163,0,0
377676163,0,0
377680163,4095,0
377684163,4095,0
377688163,2693,0
377692163,0,0
377696163,0,0
377700163,4095,0
377704163,4095,0
377708163,3380,0
377712163,0,0
377716163,0,0
377720163,4095,0
377724163,4095,0
377728163,3933,0
377732163,0,0
377736163,0,0
377740163,4095,0
377744163,4095,0
377748163,2349,0
377752163,0,0
377756163,0,0
377760163,4095,0
377764163,4095,0
377768163,2131,0
377772163,0,0
377776163,0,0
377780163,4095,0
377784163,4095,0
377788163,2517,0
377792163,0,0
377796163,165,0
377800163,4095,0
377804163,4095,0
377808163,2853,0
377812163,0,0
377816163,0,0
377820163,4095,0
377824163,4095,0
377828163,1929,0
377832163,0,0
377836163,0,0
377840163,4095,0
377844163,4095,0
377848163,1645,0
377852163,0,0
377856163,0,0
377860163,4095,0
377864163,4095,0
377868163,1188,0
377872163,0,0
377876163,0,0
377880163,4095,0
377884163,4095,0
377888163,1477,0
377892163,0,0
377896163,0,0
377900163,4095,0
377904163,4095,0
377908163,1401,0
377912163,0,0
377916163,0,0
377920163,4095,0
377924163,4095,0
377928163,1094,0
377932163,0,0
377936163,0,0
377940163,4095,0
377944163,4095,0
377948163,903,0
377952163,0,0
377956163,0,0
377960163,4095,0
377964163,4095,0
377968163,741,0
377972163,0,0
377976163,0,0
377980163,4095,0
377984163,4095,0
377988163,757,0
377992163,0,0
377996163,0,0
378000163,4095,0
378004163,4095,0
378008163,543,0
378012163,0,0
378016163,0,0
378020163,4095,0
378024163,4095,0
378028163,313,0
378032163,0,0
378036163,0,0
378040163,4095,0
378044163,4095,0
378048163,0,0
378052163,0,0
378056163,0,0
378060163,4095,0
378064163,4095,0
378068163,165,0
378072163,0,0
378076163,0,0
378080163,4095,0
378084163,4095,0
378088163,141,0
378092163,0,0
378096163,0,0
378100163,4095,0
378104163,4095,0
378108163,0,0
378112163,0,0
378116163,102,0
378120163,4095,0
378124163,4095,0
378128163,0,0
378132163,0,0
378136163,591,0
378140163,4095,0
378144163,4095,0
378148163,1,0
378152163,0,0
378156163,2219,0
378160163,4095,0
378164163,4095,0
378168163,0,0
378172163,0,0
378176163,719,0
378180163,4095,0
378184163,4095,0
378188163,0,0
378192163,0,0
378196163,170,0
378200163,4095,0
378204163,4095,0
378208163,0,0
378212163,0,0
378216163,331,0
378220163,4095,0
378224163,4095,0
378228163,0,0
378232163,0,0
378236163,365,0
378240163,4095,0
378244163,4095,0
378248163,0,0
378252163,0,0
378256163,717,0
378260163,4095,0
378264163,4095,0
378268163,0,0
378272163,0,0
378276163,765,0
378280163,4095,0
378284163,4095,0
378288163,0,0
378292163,0,0
378296163,808,0
378300163,4095,0
378304163,4095,0
378308163,0,0
378312163,0,0
378316163,791,0
378320163,4095,0
378324163,4095,0
378328163,0,0
378332163,0,0
378336163,1151,0
378340163,4095,0
378344163,4095,0
378348163,0,0
378352163,0,0
378356163,1297,0
378360163,4095,0
378364163,4095,0
378368163,0,0
378372163,0,0
378376163,1311,0
378380163,4095,0
378384163,4095,0
378388163,0,0
378392163,0,0
378396163,1404,0
378400163,4095,0
378404163,4095,0
378408163,0,0
378412163,0,0
378416163,1403,0
378420163,4095,0
378424163,4095,0
378428163,0,0
378432163,0,0
378436163,1743,0
378440163,4095,0
378444163,4095,0
378448163,0,0
378452163,0,0
378456163,1833,0
378460163,4095,0
378464163,4095,0
378468163,0,0
378472163,0,0
378476163,1874,0
378480163,4095,0
378484163,4095,0
378488163,0,0
378492163,0,0
378496163,1899,0
378500163,4095,0
378504163,4095,0
378508163,0,0
378512163,0,0
378516163,2331,0
378520163,4095,0
378524163,4095,0
378528163,0,0
378532163,0,0
378536163,2535,0
378540163,4095,0
378544163,4095,0
378548163,0,0
378552163,0,0
378556163,2472,0
378560163,4095,0
378564163,4095,0
378568163,0,0
378572163,0,0
378576163,2591,0
378580163,4095,0
378584163,4095,0
378588163,0,0
378592163,0,0
378596163,2592,0
378600163,4095,0
378604163,4095,0
378608163,0,0
378612163,0,0
378616163,2999,0
378620163,4095,0
378624163,4095,0
378628163,0,0
378632163,0,0
378636163,3125,0
378640163,4095,0
378644163,4095,0
378648163,0,0
378652163,0,0
378656163,3181,0
378660163,4095,0
378664163,4095,0
378668163,0,0
378672163,0,0
378676163,3163,0
378680163,4095,0
378684163,4095,0
378688163,0,0
378692163,0,0
378696163,3945,0
378700163,4095,0
378704163,4095,0
378708163,0,0
378712163,0,0
378716163,4095,0
378720163,4095,0
378724163,4095,0
378728163,0,0
378732163,0,0
378736163,4095,0
378740163,4095,0
378744163,4095,0
378748163,0,0
378752163,0,0
378756163,4095,0
378760163,4095,0
378764163,3909,0
378768163,0,0
378772163,0,0
378776163,4095,0
378780163,4095,0
378784163,4095,0
378788163,0,0
378792163,0,0
378796163,4095,0
378800163,4095,0
378804163,4095,0
378808163,0,0
378812163,0,0
378816163,4095,0
378820163,4095,0
378824163,3879,0
378828163,0,0
378832163,0,0
378836163,4095,0
378840163,4095,0
378844163,3641,0
378848163,0,0
378852163,0,0
378856163,4095,0
378860163,4095,0
378864163,3491,0
378868163,0,0
378872163,0,0
378876163,4095,0
378880163,4095,0
378884163,3512,0
378888163,0,0
378892163,0,0
378896163,4095,0
378900163,4095,0
378904163,3334,0
378908163,0,0
378912163,0,0
378916163,4095,0
378920163,4095,0
378924163,3103,0
378928163,0,0
378932163,0,0
378936163,4095,0
378940163,4095,0
378944163,2745,0
378948163,0,0
378952163,0,0
378956163,4095,0
378960163,4095,0
378964163,2940,0
378968163,0,0
378972163,0,0
378976163,4095,0
378980163,4095,0
378984163,2908,0
378988163,0,0
378992163,0,0
378996163,4095,0
379000163,4095,0
379004163,2694,0
379008163,0,0
379012163,0,0
379016163,4095,0
379020163,4095,0
379024163,2513,0
379028163,0,0
379032163,0,0
379036163,4095,0
379040163,4095,0
379044163,2335,0
379048163,0,0
379052163,0,0
379056163,4095,0
379060163,4095,0
379064163,2367,0
379068163,0,0
379072163,0,0
379076163,4095,0
379080163,4095,0
379084163,2189,0
379088163,0,0
379092163,0,0
379096163,4095,0
379100163,4095,0
379104163,2027,0
379108163,0,0
379112163,0,0
379116163,4095,0
379120163,4095,0
379124163,1588,0
379128163,0,0
379132163,0,0
379136163,4095,0
379140163,4095,0
379144163,1961,0
379148163,0,0
379152163,0,0
379156163,4095,0
379160163,4095,0
379164163,2915,0
379168163,0,0
379172163,0,0
379176163,4095,0
379180163,4095,0
379184163,1662,0
379188163,0,0
379192163,0,0
379196163,4095,0
379200163,4095,0
379204163,1298,0
379208163,0,0
379212163,0,0
379216163,4095,0
379220163,4095,0
379224163,1511,0
379228163,0,0
379232163,794,0
379236163,4095,0
379240163,4095,0
379244163,2006,0
379248163,0,0
379252163,0,0
379256163,4095,0
379260163,4095,0
379264163,1051,0
379268163,0,0
379272163,0,0
379276163,4095,0
379280163,4095,0
379284163,1001,0
379288163,0,0
379292163,0,0
379296163,4095,0
379300163,4095,0
379304163,309,0
379308163,0,0
379312163,0,0
379316163,4095,0
379320163,4095,0
379324163,853,0
379328163,0,0
379332163,0,0
379336163,4095,0
379340163,4095,0
379344163,680,0
379348163,0,0
379352163,0,0
379356163,4095,0
379360163,4095,0
379364163,363,0
379368163,0,0
379372163,0,0
379376163,4095,0
379380163,4095,0
379384163,117,0
379388163,0,0
379392163,0,0
379396163,4095,0
379400163,4095,0
379404163,0,0
379408163,0,0
379412163,0,0
379416163,4095,0
379420163,4095,0
379424163,0,0
379428163,0,0
379432163,112,0
379436163,4095,0
379440163,4095,0
379444163,0,0
379448163,0,0
379452163,119,0
379456163,4095,0
379460163,4095,0
379464163,0,0
379468163,0,0
379472163,155,0
379476163,4095,0
379480163,4095,0
379484163,0,0
379488163,0,0
379492163,173,0
379496163,4095,0
379500163,4095,0
379504163,0,0
379508163,0,0
379512163,339,0
379516163,4095,0
379520163,4095,0
379524163,0,0
379528163,0,0
379532163,421,0
379536163,4095,0
379540163,4095,0
379544163,0,0
379548163,0,0
379552163,476,0
379556163,4095,0
379560163,4095,0
379564163,0,0
379568163,0,0
379572163,462,0
379576163,4095,0
379580163,4095,0
379584163,0,0
379588163,0,0
379592163,691,0
379596163,4095,0
379600163,4095,0
379604163,0,0
379608163,0,0
379612163,859,0
379616163,4095,0
379620163,4095,0
379624163,0,0
379628163,0,0
379632163,878,0
379636163,4095,0
379640163,4095,0
379644163,0,0
379648163,0,0
379652163,931,0
379656163,4095,0
379660163,4095,0
379664163,0,0
379668163,0,0
379672163,915,0
379676163,4095,0
379680163,4095,0
379684163,0,0
379688163,0,0
379692163,1235,0
379696163,4095,0
379700163,4095,0
379704163,0,0
379708163,0,0
379712163,1438,0
379716163,4095,0
379720163,4095,0
379724163,0,0
379728163,0,0
379732163,1661,0
379736163,4095,0
379740163,4095,0
379744163,0,0
379748163,0,0
379752163,2019,0
379756163,4095,0
379760163,4095,0
379764163,0,0
379768163,0,0
379772163,4095,0
379776163,4095,0
379780163,4095,0
379784163,0,0
379788163,0,0
379792163,2916,0
379796163,4095,0
379800163,4095,0
379804163,0,0
379808163,0,0
379812163,2019,0
379816163,4095,0
379820163,4095,0
379824163,0,0
379828163,0,0
379832163,2041,0
379836163,4095,0
379840163,4095,0
379844163,0,0
379848163,0,0
379852163,2091,0
379856163,4095,0
379860163,4095,0
379864163,0,0
379868163,0,0
379872163,2461,0
379876163,4095,0
379880163,4095,0
379884163,0,0
379888163,0,0
379892163,2589,0
379896163,4095,0
379900163,4095,0
379904163,0,0
379908163,0,0
379912163,2659,0
379916163,4095,0
379920163,4095,0
379924163,0,0
379928163,0,0
379932163,2767,0
379936163,4095,0
379940163,4095,0
379944163,0,0
379948163,0,0
379952163,3093,0
379956163,4095,0
379960163,4095,0
379964163,0,0
379968163,0,0
379972163,3369,0
379976163,4095,0
379980163,4095,0
379984163,0,0
379988163,0,0
379992163,3464,0
379996163,4095,0
380000163,4095,0
380004163,0,0
380008163,0,0
380012163,3625,0
380016163,4095,0
380020163,4095,0
380024163,0,0
380028163,0,0
380032163,3573,0
380036163,4095,0
380040163,4095,0
380044163,0,0
380048163,0,0
380052163,4095,0
380056163,4095,0
380060163,4095,0
380064163,0,0
380068163,0,0
380072163,4095,0
380076163,4095,0
380080163,4095,0
380084163,0,0
380088163,0,0
380092163,4095,0
380096163,4095,0
380100163,4053,0
380104163,0,0
380108163,0,0
380112163,4095,0
380116163,4095,0
380120163,4095,0
380124163,0,0
380128163,0,0
380132163,4095,0
380136163,4095,0
380140163,4095,0
380144163,0,0
380148163,0,0
380152163,4095,0
380156163,4095,0
380160163,3541,0
380164163,0,0
380168163,0,0
380172163,4095,0
380176163,4095,0
380180163,3692,0
380184163,0,0
380188163,0,0
380192163,4095,0
380196163,4095,0
380200163,3037,0
380204163,0,0
380208163,0,0
380212163,4095,0
380216163,4095,0
380220163,3811,0
380224163,0,0
380228163,0,0
380232163,4095,0
380236163,4095,0
380240163,3545,0
380244163,0,0
380248163,0,0
380252163,4095,0
380256163,4095,0
380260163,3079,0
380264163,0,0
380268163,0,0
380272163,4095,0
380276163,4095,0
380280163,2860,0
380284163,0,0
380288163,0,0
380292163,4095,0
380296163,4095,0
380300163,2703,0
380304163,0,0
380308163,0,0
380312163,4095,0
380316163,4095,0
380320163,2601,0
380324163,0,0
380328163,0,0
380332163,4095,0
380336163,4095,0
380340163,2429,0
380344163,0,0
380348163,0,0
380352163,4095,0
380356163,4095,0
380360163,2286,0
380364163,0,0
380368163,0,0
380372163,4095,0
380376163,4095,0
380380163,1973,0
380384163,0,0
380388163,0,0
380392163,4095,0
380396163,4095,0
380400163,2203,0
380404163,0,0
380408163,0,0
380412163,4095,0
380416163,4095,0
380420163,2167,0
380424163,0,0
380428163,0,0
380432163,4095,0
380436163,4095,0
380440163,1979,0
380444163,0,0
380448163,0,0
380452163,4095,0
380456163,4095,0
380460163,1719,0
380464163,0,0
380468163,0,0
380472163,4095,0
380476163,4095,0
380480163,1837,0
380484163,0,0
380488163,291,0
380492163,4095,0
380496163,4095,0
380500163,1997,0
380504163,0,0
380508163,0,0
380512163,4095,0
380516163,4095,0
380520163,1225,0
380524163,0,0
380528163,0,0
380532163,4095,0
380536163,4095,0
380540163,1371,0
380544163,0,0
380548163,0,0
380552163,4095,0
380556163,4095,0
380560163,651,0
380564163,0,0
380568163,0,0
380572163,4095,0
380576163,4095,0
380580163,1399,0
380584163,0,0
380588163,0,0
380592163,4095,0
380596163,4095,0
380600163,1110,0
380604163,0,0
380608163,0,0
380612163,4095,0
380616163,4095,0
380620163,637,0
380624163,0,0
380628163,0,0
380632163,4095,0
380636163,4095,0
380640163,422,0
380644163,0,0
380648163,0,0
380652163,4095,0
380656163,4095,0
380660163,206,0
380664163,0,0
380668163,0,0
380672163,4095,0
380676163,4095,0
380680163,201,0
380684163,0,0
380688163,0,0
380692163,4095,0
380696163,4095,0
380700163,0,0
380704163,0,0
380708163,0,0
380712163,4095,0
380716163,4095,0
380720163,0,0
380724163,0,0
380728163,0,0
380732163,4095,0
380736163,4095,0
380740163,0,0
380744163,0,0
380748163,0,0
380752163,4095,0
380756163,4095,0
380760163,0,0
380764163,0,0
380768163,155,0
380772163,4095,0
380776163,4095,0
380780163,0,0
380784163,0,0
380788163,185,0
380792163,4095,0
380796163,4095,0
380800163,0,0
380804163,0,0
380808163,264,0
380812163,4095,0
380816163,4095,0
380820163,0,0
380824163,0,0
380828163,252,0
380832163,4095,0
380836163,4095,0
380840163,0,0
380844163,0,0
380848163,477,0
380852163,4095,0
380856163,4095,0
380860163,0,0
380864163,0,0
380868163,597,0
380872163,4095,0
380876163,4095,0
380880163,0,0
380884163,0,0
380888163,659,0
380892163,4095,0
380896163,4095,0
380900163,0,0
380904163,0,0
380908163,752,0
380912163,4095,0
380916163,4095,0
380920163,0,0
380924163,0,0
380928163,795,0
380932163,4095,0
380936163,4095,0
380940163,0,0
380944163,0,0
380948163,1043,0
380952163,4095,0
380956163,4095,0
380960163,0,0
380964163,0,0
380968163,1100,0
380972163,4095,0
380976163,4095,0
380980163,0,0
380984163,0,0
380988163,1177,0
380992163,4095,0
380996163,4095,0
381000163,0,0
381004163,0,0
381008163,1190,0
381012163,4095,0
381016163,4095,0
381020163,0,0
381024163,0,0
381028163,1499,0
381032163,4095,0
381036163,4095,0
381040163,0,0
381044163,0,0
381048163,1592,0
381052163,4095,0
381056163,4095,0
381060163,0,0
381064163,0,0
381068163,1721,0
381072163,4095,0
381076163,4095,0
381080163,0,0
381084163,0,0
381088163,1799,0
381092163,4095,0
381096163,4095,0
381100163,0,0
381104163,0,0
381108163,1885,0
381112163,4095,0
381116163,4095,0
381120163,0,0
381124163,0,0
381128163,2121,0
381132163,4095,0
381136163,4095,0
381140163,0,0
381144163,0,0
381148163,2199,0
381152163,4095,0
381156163,4095,0
381160163,0,0
381164163,0,0
381168163,2335,0
381172163,4095,0
381176163,4095,0
381180163,0,0
381184163,0,0
381188163,2355,0
381192163,4095,0
381196163,4095,0
381200163,0,0
381204163,0,0
381208163,2746,0
381212163,4095,0
381216163,4095,0
381220163,0,0
381224163,0,0
381228163,2852,0
381232163,4095,0
381236163,4095,0
381240163,0,0
381244163,0,0
381248163,2964,0
381252163,4095,0
381256163,4095,0
381260163,0,0
381264163,0,0
381268163,3145,0
381272163,4095,0
381276163,4095,0
381280163,0,0
381284163,0,0
381288163,3347,0
381292163,4095,0
381296163,4095,0
381300163,0,0
381304163,0,0
381308163,3791,0
381312163,4095,0
381316163,4095,0
381320163,0,0
381324163,0,0
381328163,3963,0
381332163,4095,0
381336163,4095,0
381340163,0,0
381344163,0,0
381348163,4095,0
381352163,4095,0
381356163,4095,0
381360163,0,0
381364163,0,0
381368163,4095,0
381372163,4095,0
381376163,4095,0
381380163,0,0
381384163,0,0
381388163,4095,0
381392163,4095,0
381396163,4095,0
381400163,0,0
381404163,0,0
381408163,4095,0
381412163,4095,0
381416163,3997,0
381420163,0,0
381424163,0,0
381428163,4095,0
381432163,4095,0
381436163,3939,0
381440163,0,0
381444163,0,0
381448163,4095,0
381452163,4095,0
381456163,3365,0
381460163,0,0
381464163,0,0
381468163,4095,0
381472163,4095,0
381476163,3899,0
381480163,0,0
381484163,0,0
381488163,4095,0
381492163,4095,0
381496163,3743,0
381500163,0,0
381504163,0,0
381508163,4095,0
381512163,4095,0
381516163,3399,0
381520163,0,0
381524163,0,0
381528163,4095,0
381532163,4095,0
381536163,2958,0
381540163,0,0
381544163,0,0
381548163,4095,0
381552163,4095,0
381556163,3065,0
381560163,0,0
381564163,0,0
381568163,4095,0
381572163,4095,0
381576163,3501,0
381580163,0,0
381584163,0,0
381588163,4095,0
381592163,4095,0
381596163,2761,0
381600163,0,0
381604163,0,0
381608163,4095,0
381612163,4095,0
381616163,2375,0
381620163,0,0
381624163,0,0
381628163,4095,0
381632163,4095,0
381636163,1945,0
381640163,0,0
381644163,0,0
381648163,4095,0
381652163,4095,0
381656163,2729,0
381660163,0,0
381664163,0,0
381668163,4095,0
381672163,4095,0
381676163,2537,0
381680163,0,0
381684163,0,0
381688163,4095,0
381692163,4095,0
381696163,2343,0
381700163,0,0
381704163,0,0
381708163,4095,0
381712163,4095,0
381716163,1911,0
381720163,0,0
381724163,0,0
381728163,4095,0
381732163,4095,0
381736163,1947,0
381740163,0,0
381744163,0,0
381748163,4095,0
381752163,4095,0
381756163,2332,0
381760163,0,0
381764163,0,0
381768163,4095,0
381772163,4095,0
381776163,1523,0
381780163,0,0
381784163,0,0
381788163,4095,0
381792163,4095,0
381796163,1069,0
381800163,0,0
381804163,0,0
381808163,4095,0
381812163,4095,0
381816163,615,0
381820163,0,0
381824163,0,0
381828163,4095,0
381832163,4095,0
381836163,1623,0
381840163,0,0
381844163,0,0
381848163,4095,0
381852163,4095,0
381856163,1387,0
381860163,0,0
381864163,0,0
381868163,4095,0
381872163,4095,0
381876163,1188,0
381880163,0,0
381884163,0,0
381888163,4095,0
381892163,4095,0
381896163,580,0
381900163,0,0
381904163,0,0
381908163,4095,0
381912163,4095,0
381916163,655,0
381920163,0,0
381924163,0,0
381928163,4095,0
381932163,4095,0
381936163,1131,0
381940163,0,0
381944163,0,0
381948163,4095,0
381952163,4095,0
381956163,93,0
381960163,0,0
381964163,0,0
381968163,4095,0
381972163,4095,0
381976163,0,0
381980163,0,0
381984163,0,0
381988163,4095,0
381992163,4095,0
381996163,0,0
382000163,0,0
382004163,0,0
382008163,4095,0
382012163,4095,0
382016163,367,0
382020163,0,0
382024163,341,0
382028163,4095,0
382032163,4095,0
382036163,69,0
382040163,0,0
382044163,0,0
382048163,4095,0
382052163,4095,0
382056163,0,0
382060163,0,0
382064163,0,0
382068163,4095,0
382072163,4095,0
382076163,0,0
382080163,0,0
382084163,0,0
382088163,4095,0
382092163,4095,0
382096163,0,0
382100163,0,0
382104163,659,0
382108163,4095,0
382112163,4095,0
382116163,0,0
382120163,0,0
382124163,551,0
382128163,4095,0
382132163,4095,0
382136163,0,0
382140163,0,0
382144163,557,0
382148163,4095,0
382152163,4095,0
382156163,0,0
382160163,0,0
382164163,363,0
382168163,4095,0
382172163,4095,0
382176163,0,0
382180163,0,0
382184163,731,0
382188163,4095,0
382192163,4095,0
382196163,0,0
382200163,0,0
382204163,1317,0
382208163,4095,0
382212163,4095,0
382216163,0,0
382220163,0,0
382224163,776,0
382228163,4095,0
382232163,4095,0
382236163,0,0
382240163,0,0
382244163,733,0
382248163,4095,0
382252163,4095,0
382256163,0,0
382260163,0,0
382264163,573,0
382268163,4095,0
382272163,4095,0
382276163,0,0
382280163,0,0
382284163,1709,0
382288163,4095,0
382292163,4095,0
382296163,0,0
382300163,0,0
382304163,1565,0
382308163,4095,0
382312163,4095,0
382316163,0,0
382320163,0,0
382324163,1551,0
382328163,4095,0
382332163,4095,0
382336163,0,0
382340163,0,0
382344163,1261,0
382348163,4095,0
382352163,4095,0
382356163,0,0
382360163,0,0
382364163,1784,0
382368163,4095,0
382372163,4095,0
382376163,0,0
382380163,0,0
382384163,2508,0
382388163,4095,0
382392163,4095,0
382396163,0,0
382400163,0,0
382404163,1823,0
382408163,4095,0
382412163,4095,0
382416163,0,0
382420163,0,0
382424163,1783,0
382428163,4095,0
382432163,4095,0
382436163,0,0
382440163,0,0
382444163,1577,0
382448163,4095,0
382452163,4095,0
382456163,0,0
382460163,0,0
382464163,2991,0
382468163,4095,0
382472163,4095,0
382476163,0,0
382480163,0,0
382484163,2867,0
382488163,4095,0
382492163,4095,0
382496163,0,0
382500163,0,0
382504163,2847,0
382508163,4095,0
382512163,4095,0
382516163,0,0
382520163,0,0
382524163,2415,0
382528163,4095,0
382532163,4095,0
382536163,0,0
382540163,0,0
382544163,3316,0
382548163,4095,0
382552163,4095,0
382556163,0,0
382560163,0,0
382564163,4095,0
382568163,4095,0
382572163,4095,0
382576163,0,0
382580163,0,0
382584163,3389,0
382588163,4095,0
382592163,4095,0
382596163,0,0
382600163,0,0
382604163,3181,0
382608163,4095,0
382612163,4095,0
382616163,0,0
382620163,0,0
382624163,2841,0
382628163,4095,0
382632163,4095,0
382636163,0,0
382640163,0,0
382644163,4095,0
382648163,4095,0
382652163,4095,0
382656163,0,0
382660163,0,0
382664163,4095,0
382668163,4095,0
382672163,4026,0
382676163,0,0
382680163,0,0
382684163,4095,0
382688163,4095,0
382692163,3412,0
382696163,0,0
382700163,0,0
382704163,4025,0
382708163,4095,0
382712163,3499,0
382716163,0,0
382720163,0,0
382724163,4095,0
382728163,4095,0
382732163,4095,0
382736163,0,0
382740163,0,0
382744163,4095,0
382748163,4095,0
382752163,4095,0
382756163,0,0
382760163,0,0
382764163,4095,0
382768163,4095,0
382772163,3862,0
382776163,0,0
382780163,0,0
382784163,4095,0
382788163,4095,0
382792163,3211,0
382796163,0,0
382800163,0,0
382804163,4095,0
382808163,4095,0
382812163,3399,0
382816163,0,0
382820163,0,0
382824163,4095,0
382828163,4095,0
382832163,3807,0
382836163,0,0
382840163,0,0
382844163,4095,0
382848163,4095,0
382852163,2772,0
382856163,0,0
382860163,0,0
382864163,4095,0
382868163,4095,0
382872163,2072,0
382876163,0,0
382880163,0,0
382884163,4095,0
382888163,4095,0
382892163,2425,0
382896163,0,0
382900163,0,0
382904163,4095,0
382908163,4095,0
382912163,3283,0
382916163,0,0
382920163,0,0
382924163,4095,0
382928163,4095,0
382932163,3129,0
382936163,0,0
382940163,0,0
382944163,4095,0
382948163,4095,0
382952163,2724,0
382956163,0,0
382960163,0,0
382964163,4095,0
382968163,4095,0
382972163,2123,0
382976163,0,0
382980163,0,0
382984163,4095,0
382988163,4095,0
382992163,2277,0
382996163,0,0
383000163,0,0
383004163,4095,0
383008163,4095,0
383012163,2250,0
383016163,0,0
383020163,0,0
383024163,4095,0
383028163,4095,0
383032163,1983,0
383036163,0,0
383040163,0,0
383044163,4095,0
383048163,4095,0
383052163,1763,0
383056163,0,0
383060163,0,0
383064163,4095,0
383068163,4095,0
383072163,1592,0
383076163,0,0
383080163,0,0
383084163,4095,0
383088163,4095,0
383092163,1671,0
383096163,0,0
383100163,0,0
383104163,4095,0
383108163,4095,0
383112163,1496,0
383116163,0,0
383120163,0,0
383124163,4095,0
383128163,4095,0
383132163,1499,0
383136163,0,0
383140163,0,0
383144163,4095,0
383148163,4095,0
383152163,915,0
383156163,0,0
383160163,0,0
383164163,4095,0
383168163,4095,0
383172163,1203,0
383176163,0,0
383180163,0,0
383184163,4095,0
383188163,4095,0
383192163,1311,0
383196163,0,0
383200163,0,0
383204163,4095,0
383208163,4095,0
383212163,749,0
383216163,0,0
383220163,0,0
383224163,4095,0
383228163,4095,0
383232163,469,0
383236163,0,0
383240163,0,0
383244163,4095,0
383248163,4095,0
383252163,279,0
383256163,0,0
383260163,0,0
383264163,4095,0
383268163,4095,0
383272163,361,0
383276163,0,0
383280163,0,0
383284163,4095,0
383288163,4095,0
383292163,75,0
383296163,0,0
383300163,0,0
383304163,4095,0
383308163,4095,0
383312163,0,0
383316163,0,0
383320163,0,0
383324163,4095,0
383328163,4095,0
383332163,0,0
383336163,0,0
383340163,0,0
383344163,4095,0
383348163,4095,0
383352163,0,0
383356163,0,0
383360163,466,0
383364163,4095,0
383368163,4095,0
383372163,0,0
383376163,0,0
383380163,493,0
383384163,4095,0
383388163,4095,0
383392163,0,0
383396163,0,0
383400163,359,0
383404163,4095,0
383408163,4095,0
383412163,0,0
383416163,0,0
383420163,185,0
383424163,4095,0
383428163,4095,0
383432163,0,0
383436163,0,0
383440163,791,0
383444163,4095,0
383448163,4095,0
383452163,0,0
383456163,0,0
383460163,917,0
383464163,4095,0
383468163,4095,0
383472163,0,0
383476163,0,0
383480163,619,0
383484163,4095,0
383488163,4095,0
383492163,0,0
383496163,0,0
383500163,555,0
383504163,4095,0
383508163,4095,0
383512163,0,0
383516163,0,0
383520163,1003,0
383524163,4095,0
383528163,4095,0
383532163,0,0
383536163,0,0
383540163,1468,0
383544163,4095,0
383548163,4095,0
383552163,0,0
383556163,0,0
383560163,1481,0
383564163,4095,0
383568163,4095,0
383572163,0,0
383576163,0,0
383580163,1222,0
383584163,4095,0
383588163,4095,0
383592163,0,0
383596163,0,0
383600163,1098,0
383604163,4095,0
383608163,4095,0
383612163,0,0
383616163,0,0
383620163,1877,0
383624163,4095,0
383628163,4095,0
383632163,0,0
383636163,0,0
383640163,1849,0
383644163,4095,0
383648163,4095,0
383652163,0,0
383656163,0,0
383660163,1589,0
383664163,4095,0
383668163,4095,0
383672163,0,0
383676163,0,0
383680163,1443,0
383684163,4095,0
383688163,4095,0
383692163,0,0
383696163,0,0
383700163,2429,0
383704163,4095,0
383708163,4095,0
383712163,0,0
383716163,0,0
383720163,2687,0
383724163,4095,0
383728163,4095,0
383732163,0,0
383736163,0,0
383740163,2902,0
383744163,4095,0
383748163,4095,0
383752163,0,0
383756163,0,0
383760163,2361,0
383764163,4095,0
383768163,4095,0
383772163,0,0
383776163,0,0
383780163,2425,0
383784163,4095,0
383788163,4095,0
383792163,0,0
383796163,0,0
383800163,3455,0
383804163,4095,0
383808163,4095,0
383812163,0,0
383816163,0,0
383820163,3013,0
383824163,4095,0
383828163,4095,0
383832163,0,0
383836163,0,0
383840163,2821,0
383844163,4095,0
383848163,4095,0
383852163,0,0
383856163,0,0
383860163,2686,0
383864163,4095,0
383868163,4095,0
383872163,0,0
383876163,0,0
383880163,3398,0
383884163,4095,0
383888163,4095,0
383892163,0,0
383896163,0,0
383900163,3557,0
383904163,4095,0
383908163,4095,0
383912163,0,0
383916163,0,0
383920163,3695,0
383924163,4095,0
383928163,4095,0
383932163,0,0
383936163,0,0
383940163,4095,0
383944163,4095,0
383948163,4095,0
383952163,0,0
383956163,0,0
383960163,4095,0
383964163,4095,0
383968163,4095,0
383972163,0,0
383976163,0,0
383980163,4095,0
383984163,4095,0
383988163,4095,0
383992163,0,0
383996163,0,0
384000163,4095,0
384004163,4095,0
384008163,4095,0
384012163,0,0
384016163,0,0
384020163,4095,0
384024163,4095,0
384028163,3948,0
384032163,0,0
384036163,0,0
384040163,4095,0
384044163,4095,0
384048163,3667,0
384052163,0,0
384056163,0,0
384060163,4095,0
384064163,4095,0
384068163,4020,0
384072163,0,0
384076163,0,0
384080163,4095,0
384084163,4095,0
384088163,3416,0
384092163,0,0
384096163,0,0
384100163,4095,0
384104163,4095,0
384108163,2917,0
384112163,0,0
384116163,0,0
384120163,4095,0
384124163,4095,0
384128163,2380,0
384132163,0,0
384136163,0,0
384140163,4095,0
384144163,4095,0
384148163,3366,0
384152163,0,0
384156163,0,0
384160163,4095,0
384164163,4095,0
384168163,3485,0
384172163,0,0
384176163,0,0
384180163,4095,0
384184163,4095,0
384188163,2803,0
384192163,0,0
384196163,0,0
384200163,4095,0
384204163,4095,0
384208163,2533,0
384212163,0,0
384216163,0,0
384220163,4095,0
384224163,4095,0
384228163,2453,0
384232163,0,0
384236163,0,0
384240163,4095,0
384244163,4095,0
384248163,2489,0
384252163,0,0
384256163,0,0
384260163,4095,0
384264163,4095,0
384268163,2151,0
384272163,0,0
384276163,0,0
384280163,4095,0
384284163,4095,0
384288163,2219,0
384292163,0,0
384296163,0,0
384300163,4095,0
384304163,4095,0
384308163,1869,0
384312163,0,0
384316163,0,0
384320163,4095,0
384324163,4095,0
384328163,2295,0
384332163,0,0
384336163,0,0
384340163,4095,0
384344163,4095,0
384348163,1983,0
384352163,0,0
384356163,0,0
384360163,4095,0
384364163,4095,0
384368163,1467,0
384372163,0,0
384376163,0,0
384380163,4095,0
384384163,4095,0
384388163,1402,0
384392163,0,0
384396163,0,0
384400163,4095,0
384404163,4095,0
384408163,1189,0
384412163,0,0
384416163,0,0
384420163,4095,0
384424163,4095,0
384428163,1187,0
384432163,0,0
384436163,0,0
384440163,4095,0
384444163,4095,0
384448163,914,0
384452163,0,0
384456163,0,0
384460163,4095,0
384464163,4095,0
384468163,969,0
384472163,0,0
384476163,0,0
384480163,4095,0
384484163,4095,0
384488163,551,0
384492163,0,0
384496163,0,0
384500163,4095,0
384504163,4095,0
384508163,1014,0
384512163,0,0
384516163,0,0
384520163,4095,0
384524163,4095,0
384528163,541,0
384532163,0,0
384536163,0,0
384540163,4095,0
384544163,4095,0
384548163,119,0
384552163,0,0
384556163,0,0
384560163,4095,0
384564163,4095,0
384568163,51,0
384572163,0,0
384576163,0,0
384580163,4095,0
384584163,4095,0
384588163,0,0
384592163,0,0
384596163,350,0
384600163,4095,0
384604163,4095,0
384608163,0,0
384612163,0,0
384616163,0,0
384620163,4095,0
384624163,4095,0
384628163,0,0
384632163,0,0
384636163,0,0
384640163,4095,0
384644163,4095,0
384648163,0,0
384652163,0,0
384656163,133,0
384660163,4095,0
384664163,4095,0
384668163,0,0
384672163,0,0
384676163,99,0
384680163,4095,0
384684163,4095,0
384688163,0,0
384692163,0,0
384696163,269,0
384700163,4095,0
384704163,4095,0
384708163,0,0
384712163,0,0
384716163,309,0
384720163,4095,0
384724163,4095,0
384728163,0,0
384732163,0,0
384736163,607,0
384740163,4095,0
384744163,4095,0
384748163,0,0
384752163,0,0
384756163,743,0
384760163,4095,0
384764163,4095,0
384768163,0,0
384772163,0,0
384776163,1337,0
384780163,4095,0
384784163,4095,0
384788163,0,0
384792163,0,0
384796163,735,0
384800163,4095,0
384804163,4095,0
384808163,0,0
384812163,0,0
384816163,821,0
384820163,4095,0
384824163,4095,0
384828163,0,0
384832163,0,0
384836163,997,0
384840163,4095,0
384844163,4095,0
384848163,0,0
384852163,0,0
384856163,952,0
384860163,4095,0
384864163,4095,0
384868163,0,0
384872163,0,0
384876163,1171,0
384880163,4095,0
384884163,4095,0
384888163,0,0
384892163,0,0
384896163,1247,0
384900163,4095,0
384904163,4095,0
384908163,0,0
384912163,0,0
384916163,1619,0
384920163,4095,0
384924163,4095,0
384928163,0,0
384932163,0,0
384936163,1816,0
384940163,4095,0
384944163,4095,0
384948163,0,0
384952163,0,0
384956163,2581,0
384960163,4095,0
384964163,4095,0
384968163,0,0
384972163,0,0
384976163,1805,0
384980163,4095,0
384984163,4095,0
384988163,0,0
384992163,0,0
384996163,1927,0
385000163,4095,0
385004163,4095,0
385008163,0,0
385012163,0,0
385016163,2123,0
385020163,4095,0
385024163,4095,0
385028163,0,0
385032163,0,0
385036163,2109,0
385040163,4095,0
385044163,4095,0
385048163,0,0
385052163,0,0
385056163,2393,0
385060163,4095,0
385064163,4095,0
385068163,0,0
385072163,0,0
385076163,2532,0
385080163,4095,0
385084163,4095,0
385088163,0,0
385092163,0,0
385096163,2965,0
385100163,4095,0
385104163,4095,0
385108163,0,0
385112163,0,0
385116163,3412,0
385120163,4095,0
385124163,4095,0
385128163,0,0
385132163,0,0
385136163,4095,0
385140163,4095,0
385144163,4095,0
385148163,0,0
385152163,0,0
385156163,3155,0
385160163,4095,0
385164163,4095,0
385168163,0,0
385172163,0,0
385176163,3366,0
385180163,4095,0
385184163,4095,0
385188163,0,0
385192163,0,0
385196163,3671,0
385200163,4095,0
385204163,4095,0
385208163,0,0
385212163,0,0
385216163,3788,0
385220163,4095,0
385224163,4095,0
385228163,0,0
385232163,0,0
385236163,4095,0
385240163,4095,0
385244163,4095,0
385248163,0,0
385252163,0,0
385256163,4095,0
385260163,4095,0
385264163,4095,0
385268163,0,0
385272163,0,0
385276163,4095,0
385280163,4095,0
385284163,4095,0
385288163,0,0
385292163,0,0
385296163,4095,0
385300163,4095,0
385304163,3923,0
385308163,0,0
385312163,0,0
385316163,4095,0
385320163,4095,0
385324163,3717,0
385328163,0,0
385332163,0,0
385336163,4095,0
385340163,4095,0
385344163,3687,0
385348163,0,0
385352163,0,0
385356163,4095,0
385360163,4095,0
385364163,3711,0
385368163,0,0
385372163,0,0
385376163,4095,0
385380163,4095,0
385384163,3607,0
385388163,0,0
385392163,0,0
385396163,4095,0
385400163,4095,0
385404163,3811,0
385408163,0,0
385412163,0,0
385416163,4095,0
385420163,4095,0
385424163,3107,0
385428163,0,0
385432163,0,0
385436163,4095,0
385440163,4095,0
385444163,2971,0
385448163,0,0
385452163,0,0
385456163,4095,0
385460163,4095,0
385464163,2887,0
385468163,0,0
385472163,0,0
385476163,4095,0
385480163,4095,0
385484163,2860,0
385488163,0,0
385492163,0,0
385496163,4095,0
385500163,4095,0
385504163,2653,0
385508163,0,0
385512163,0,0
385516163,4095,0
385520163,4095,0
385524163,2606,0
385528163,0,0
385532163,0,0
385536163,4095,0
385540163,4095,0
385544163,2716,0
385548163,0,0
385552163,0,0
385556163,4095,0
385560163,4095,0
385564163,2543,0
385568163,0,0
385572163,0,0
385576163,4095,0
385580163,4095,0
385584163,2676,0
385588163,0,0
385592163,0,0
385596163,4095,0
385600163,4095,0
385604163,1957,0
385608163,0,0
385612163,0,0
385616163,4095,0
385620163,4095,0
385624163,1847,0
385628163,0,0
385632163,0,0
385636163,4095,0
385640163,4095,0
385644163,1709,0
385648163,0,0
385652163,0,0
385656163,4095,0
385660163,4095,0
385664163,1667,0
385668163,0,0
385672163,0,0
385676163,4095,0
385680163,4095,0
385684163,1393,0
385688163,0,0
385692163,0,0
385696163,4095,0
385700163,4095,0
385704163,1365,0
385708163,0,0
385712163,0,0
385716163,4095,0
385720163,4095,0
385724163,1377,0
385728163,0,0
385732163,0,0
385736163,4095,0
385740163,4095,0
385744163,1381,0
385748163,0,0
385752163,0,0
385756163,4095,0
385760163,4095,0
385764163,1509,0
385768163,0,0
385772163,0,0
385776163,4095,0
385780163,4095,0
385784163,651,0
385788163,0,0
385792163,0,0
385796163,4095,0
385800163,4095,0
385804163,531,0
385808163,0,0
385812163,0,0
385816163,4095,0
385820163,4095,0
385824163,435,0
385828163,0,0
385832163,72,0
385836163,4095,0
385840163,4095,0
385844163,413,0
385848163,0,0
385852163,163,0
385856163,4095,0
385860163,4095,0
385864163,87,0
385868163,0,0
385872163,0,0
385876163,4095,0
385880163,4095,0
385884163,71,0
385888163,0,0
385892163,0,0
385896163,4095,0
385900163,4095,0
385904163,73,0
385908163,0,0
385912163,0,0
385916163,4095,0
385920163,4095,0
385924163,59,0
385928163,0,0
385932163,46,0
385936163,4095,0
385940163,4095,0
385944163,206,0
385948163,0,0
385952163,125,0
385956163,4095,0
385960163,4095,0
385964163,0,0
385968163,0,0
385972163,273,0
385976163,4095,0
385980163,4095,0
385984163,0,0
385988163,0,0
385992163,439,0
385996163,4095,0
386000163,4095,0
386004163,0,0
386008163,0,0
386012163,931,0
386016163,4095,0
386020163,4095,0
386024163,0,0
386028163,0,0
386032163,1003,0
386036163,4095,0
386040163,4095,0
386044163,0,0
386048163,0,0
386052163,531,0
386056163,4095,0
386060163,4095,0
386064163,0,0
386068163,0,0
386072163,647,0
386076163,4095,0
386080163,4095,0
386084163,0,0
386088163,0,0
386092163,760,0
386096163,4095,0
386100163,4095,0
386104163,0,0
386108163,0,0
386112163,895,0
386116163,4095,0
386120163,4095,0
386124163,0,0
386128163,0,0
386132163,973,0
386136163,4095,0
386140163,4095,0
386144163,0,0
386148163,0,0
386152163,1148,0
386156163,4095,0
386160163,4095,0
386164163,0,0
386168163,0,0
386172163,1350,0
386176163,4095,0
386180163,4095,0
386184163,0,0
386188163,0,0
386192163,2042,0
386196163,4095,0
386200163,4095,0
386204163,0,0
386208163,0,0
386212163,1978,0
386216163,4095,0
386220163,4095,0
386224163,0,0
386228163,0,0
386232163,1461,0
386236163,4095,0
386240163,4095,0
386244163,0,0
386248163,0,0
386252163,1641,0
386256163,4095,0
386260163,4095,0
386264163,0,0
386268163,0,0
386272163,1779,0
386276163,4095,0
386280163,4095,0
386284163,0,0
386288163,0,0
386292163,2021,0
386296163,4095,0
386300163,4095,0
386304163,0,0
386308163,0,0
386312163,2065,0
386316163,4095,0
386320163,4095,0
386324163,0,0
386328163,0,0
386332163,2335,0
386336163,4095,0
386340163,4095,0
386344163,0,0
386348163,0,0
386352163,2575,0
386356163,4095,0
386360163,4095,0
386364163,0,0
386368163,0,0
386372163,3503,0
386376163,4095,0
386380163,4095,0
386384163,0,0
386388163,0,0
386392163,3224,0
386396163,4095,0
386400163,4095,0
386404163,0,0
386408163,0,0
386412163,2729,0
386416163,4095,0
386420163,4095,0
386424163,0,0
386428163,0,0
386432163,2983,0
386436163,4095,0
386440163,4095,0
386444163,0,0
386448163,0,0
386452163,3183,0
386456163,4095,0
386460163,4095,0
386464163,0,0
386468163,0,0
386472163,3596,0
386476163,4095,0
386480163,4095,0
386484163,0,0
386488163,0,0
386492163,3527,0
386496163,4095,0
386500163,4095,0
386504163,0,0
386508163,0,0
386512163,4005,0
386516163,4095,0
386520163,4095,0
386524163,0,0
386528163,0,0
386532163,4095,0
386536163,4095,0
386540163,4095,0
386544163,0,0
386548163,0,0
386552163,4095,0
386556163,4095,0
386560163,4095,0
386564163,0,0
386568163,0,0
386572163,4095,0
386576163,4095,0
386580163,4095,0
386584163,0,0
386588163,0,0
386592163,4095,0
386596163,4095,0
386600163,4089,0
386604163,0,0
386608163,0,0
386612163,4095,0
386616163,4095,0
386620163,3991,0
386624163,0,0
386628163,0,0
386632163,4095,0
386636163,4095,0
386640163,4095,0
386644163,0,0
386648163,0,0
386652163,4095,0
386656163,4095,0
386660163,4014,0
386664163,0,0
386668163,0,0
386672163,4095,0
386676163,4095,0
386680163,3294,0
386684163,0,0
386688163,0,0
386692163,4095,0
386696163,4095,0
386700163,3229,0
386704163,0,0
386708163,0,0
386712163,4095,0
386716163,4095,0
386720163,3091,0
386724163,0,0
386728163,0,0
386732163,4095,0
386736163,4095,0
386740163,3065,0
386744163,0,0
386748163,0,0
386752163,4095,0
386756163,4095,0
386760163,2805,0
386764163,0,0
386768163,0,0
386772163,4095,0
386776163,4095,0
386780163,2856,0
386784163,0,0
386788163,0,0
386792163,4095,0
386796163,4095,0
386800163,2597,0
386804163,0,0
386808163,0,0
386812163,4095,0
386816163,4095,0
386820163,3003,0
386824163,0,0
386828163,0,0
386832163,4095,0
386836163,4095,0
386840163,2711,0
386844163,0,0
386848163,0,0
386852163,4095,0
386856163,4095,0
386860163,2155,0
386864163,0,0
386868163,0,0
386872163,4095,0
386876163,4095,0
386880163,2099,0
386884163,0,0
386888163,0,0
386892163,4095,0
386896163,4095,0
386900163,1928,0
386904163,0,0
386908163,0,0
386912163,4095,0
386916163,4095,0
386920163,1939,0
386924163,0,0
386928163,0,0
386932163,4095,0
386936163,4095,0
386940163,1652,0
386944163,0,0
386948163,0,0
386952163,4095,0
386956163,4095,0
386960163,1695,0
386964163,0,0
386968163,0,0
386972163,4095,0
386976163,4095,0
386980163,1385,0
386984163,0,0
386988163,0,0
386992163,4095,0
386996163,4095,0
387000163,1845,0
387004163,0,0
387008163,0,0
387012163,4095,0
387016163,4095,0
387020163,1407,0
387024163,0,0
387028163,0,0
387032163,4095,0
387036163,4095,0
387040163,825,0
387044163,0,0
387048163,0,0
387052163,4095,0
387056163,4095,0
387060163,813,0
387064163,0,0
387068163,0,0
387072163,4095,0
387076163,4095,0
387080163,620,0
387084163,0,0
387088163,0,0
387092163,4095,0
387096163,4095,0
387100163,629,0
387104163,0,0
387108163,0,0
387112163,4095,0
387116163,4095,0
387120163,315,0
387124163,0,0
387128163,0,0
387132163,4095,0
387136163,4095,0
387140163,367,0
387144163,0,0
387148163,0,0
387152163,4095,0
387156163,4095,0
387160163,27,0
387164163,0,0
387168163,0,0
387172163,4095,0
387176163,4095,0
387180163,549,0
387184163,0,0
387188163,0,0
387192163,4095,0
387196163,4095,0
387200163,88,0
387204163,0,0
387208163,0,0
387212163,4095,0
387216163,4095,0
387220163,0,0
387224163,0,0
387228163,7,0
387232163,4095,0
387236163,4095,0
387240163,0,0
387244163,0,0
387248163,147,0
387252163,4095,0
387256163,4095,0
387260163,0,0
387264163,0,0
387268163,751,0
387272163,4095,0
387276163,4095,0
387280163,0,0
387284163,0,0
387288163,307,0
387292163,4095,0
387296163,4095,0
387300163,0,0
387304163,0,0
387308163,279,0
387312163,4095,0
387316163,4095,0
387320163,0,0
387324163,0,0
387328163,403,0
387332163,4095,0
387336163,4095,0
387340163,0,0
387344163,0,0
387348163,435,0
387352163,4095,0
387356163,4095,0
387360163,0,0
387364163,0,0
387368163,649,0
387372163,4095,0
387376163,4095,0
387380163,0,0
387384163,0,0
387388163,587,0
387392163,4095,0
387396163,4095,0
387400163,0,0
387404163,0,0
387408163,821,0
387412163,4095,0
387416163,4095,0
387420163,0,0
387424163,0,0
387428163,985,0
387432163,4095,0
387436163,4095,0
387440163,0,0
387444163,0,0
387448163,1827,0
387452163,4095,0
387456163,4095,0
387460163,0,0
387464163,0,0
387468163,1143,0
387472163,4095,0
387476163,4095,0
387480163,0,0
387484163,0,0
387488163,1128,0
387492163,4095,0
387496163,4095,0
387500163,0,0
387504163,0,0
387508163,1332,0
387512163,4095,0
387516163,4095,0
387520163,0,0
387524163,0,0
387528163,1378,0
387532163,4095,0
387536163,4095,0
387540163,0,0
387544163,0,0
387548163,1701,0
387552163,4095,0
387556163,4095,0
387560163,0,0
387564163,0,0
387568163,1612,0
387572163,4095,0
387576163,4095,0
387580163,0,0
387584163,0,0
387588163,1928,0
387592163,4095,0
387596163,4095,0
387600163,0,0
387604163,0,0
387608163,2195,0
387612163,4095,0
387616163,4095,0
387620163,0,0
387624163,0,0
387628163,3277,0
387632163,4095,0
387636163,4095,0
387640163,0,0
387644163,0,0
387648163,2354,0
387652163,4095,0
387656163,4095,0
387660163,0,0
387664163,0,0
387668163,2335,0
387672163,4095,0
387676163,4095,0
387680163,0,0
387684163,0,0
387688163,2543,0
387692163,4095,0
387696163,4095,0
387700163,0,0
387704163,0,0
387708163,2634,0
387712163,4095,0
387716163,4095,0
387720163,0,0
387724163,0,0
387728163,3036,0
387732163,4095,0
387736163,4095,0
387740163,0,0
387744163,0,0
387748163,2904,0
387752163,4095,0
387756163,4095,0
387760163,0,0
387764163,0,0
387768163,3288,0
387772163,4095,0
387776163,4095,0
387780163,0,0
387784163,0,0
387788163,3831,0
387792163,4095,0
387796163,4095,0
387800163,0,0
387804163,0,0
387808163,4095,0
387812163,4095,0
387816163,4095,0
387820163,0,0
387824163,0,0
387828163,4040,0
387832163,4095,0
387836163,4095,0
387840163,0,0
387844163,0,0
387848163,4015,0
387852163,4095,0
387856163,4095,0
387860163,0,0
387864163,0,0
387868163,4095,0
387872163,4095,0
387876163,3891,0
387880163,0,0
387884163,0,0
387888163,4095,0
387892163,4095,0
387896163,4095,0
387900163,0,0
387904163,0,0
387908163,4095,0
387912163,4095,0
387916163,3807,0
387920163,0,0
387924163,0,0
387928163,4095,0
387932163,4095,0
387936163,3467,0
387940163,0,0
387944163,0,0
387948163,4095,0
387952163,4095,0
387956163,3367,0
387960163,0,0
387964163,0,0
387968163,4095,0
387972163,4095,0
387976163,3479,0
387980163,0,0
387984163,0,0
387988163,4095,0
387992163,4095,0
387996163,3511,0
388000163,0,0
388004163,0,0
388008163,4095,0
388012163,4095,0
388016163,3115,0
388020163,0,0
388024163,0,0
388028163,4095,0
388032163,4095,0
388036163,2949,0
388040163,0,0
388044163,0,0
388048163,4095,0
388052163,4095,0
388056163,2664,0
388060163,0,0
388064163,0,0
388068163,4095,0
388072163,4095,0
388076163,3315,0
388080163,0,0
388084163,0,0
388088163,4095,0
388092163,4095,0
388096163,2771,0
388100163,0,0
388104163,0,0
388108163,4095,0
388112163,4095,0
388116163,2364,0
388120163,0,0
388124163,0,0
388128163,4095,0
388132163,4095,0
388136163,2133,0
388140163,0,0
388144163,0,0
388148163,4095,0
388152163,4095,0
388156163,2473,0
388160163,0,0
388164163,0,0
388168163,4095,0
388172163,4095,0
388176163,2533,0
388180163,0,0
388184163,0,0
388188163,4095,0
388192163,4095,0
388196163,2067,0
388200163,0,0
388204163,0,0
388208163,4095,0
388212163,4095,0
388216163,1789,0
388220163,0,0
388224163,0,0
388228163,4095,0
388232163,4095,0
388236163,1555,0
388240163,0,0
388244163,0,0
388248163,4095,0
388252163,4095,0
388256163,2167,0
388260163,0,0
388264163,0,0
388268163,4095,0
388272163,4095,0
388276163,1459,0
388280163,0,0
388284163,0,0
388288163,4095,0
388292163,4095,0
388296163,1126,0
388300163,0,0
388304163,0,0
388308163,4095,0
388312163,4095,0
388316163,1131,0
388320163,0,0
388324163,0,0
388328163,4095,0
388332163,4095,0
388336163,1039,0
388340163,0,0
388344163,0,0
388348163,4095,0
388352163,4095,0
388356163,749,0
388360163,0,0
388364163,0,0
388368163,4095,0
388372163,4095,0
388376163,595,0
388380163,0,0
388384163,0,0
388388163,4095,0
388392163,4095,0
388396163,795,0
388400163,0,0
388404163,0,0
388408163,4095,0
388412163,4095,0
388416163,455,0
388420163,0,0
388424163,0,0
388428163,4095,0
388432163,4095,0
